time,flux,h,injection_area,pp_0,pp_inf,tidal_head,wellPP
0,0,101.05102220186,1.2566370614359,0,0,0,0
1,0,101.05102220186,1.2566370614359,1010503.4722764,1010492.7431408,-1.4544410382007e-10,1010510.2220186
2.1,-0.00013147076718345,101.05102220186,1.2566370614359,1010510.4203299,1010476.8877676,-3.0543261435009e-10,1010510.2220186
3.31,-0.00016430907890294,101.05102093591,1.2566370614359,1010510.4174558,1010459.7320661,-4.814199667457e-10,1010510.2093591
4.641,-0.00021427895247675,101.05101919553,1.2566370614359,1010510.4010611,1010441.0629724,-6.7500603694961e-10,1010510.1919553
6.1051,-0.00026742281056604,101.05101669891,1.2566370614359,1010510.3796759,1010420.7107662,-8.8795068467744e-10,1010510.1669891
7.71561,-0.00032369541272179,101.05101327151,1.2566370614359,1010510.3504781,1010398.5051038,-1.1221897503008e-09,1010510.1327151
9.487171,-0.00038348695781679,101.05100870803,1.2566370614359,1010510.311693,1010374.2667185,-1.3798526508756e-09,1010510.0870803
11.4358881,-0.00044723883983457,101.05100276097,1.2566370614359,1010510.261235,1010347.8037325,-1.6632817350412e-09,1010510.0276097
13.57947691,-0.00051541106575798,101.05099513169,1.2566370614359,1010510.1965946,1010318.9093066,-1.9750535724212e-09,1010509.9513169
15.937424601,-0.00058848480221699,101.05098546025,1.2566370614359,1010510.1147494,1010287.3597522,-2.3180023706367e-09,1010509.8546025
18.5311670611,-0.00066696960347428,101.05097331337,1.2566370614359,1010510.0120617,1010252.9128009,-2.6952457322324e-09,1010509.7331337
21.38428376721,-0.00075141779249518,101.05095816979,1.2566370614359,1010509.8841568,1010215.3059022,-3.1102129848979e-09,1010509.5816979
24.522712143931,-0.00084242303782093,101.05093940271,1.2566370614359,1010509.725777,1010174.2544881,-3.566676341488e-09,1010509.3940271
27.974983358324,-0.00094063278720205,101.05091625873,1.2566370614359,1010509.5306049,1010129.4501729,-4.0687851717294e-09,1010509.1625873
31.772481694157,-0.0010467426125422,101.05088783241,1.2566370614359,1010509.2910534,1010080.5588672,-4.6211036953111e-09,1010508.8783241
35.949729863572,-0.0011614934759968,101.0508530361,1.2566370614359,1010508.9980109,1010027.2187965,-5.2286524365364e-09,1010508.530361
40.544702849929,-0.0012856660000157,101.0508105641,1.2566370614359,1010508.6405408,1009969.0384126,-5.8969538140733e-09,1010508.105641
45.599173134922,-0.001420072527794,101.05075885027,1.2566370614359,1010508.2055231,1009905.5941954,-6.6320822758114e-09,1010507.5885027
51.159090448415,-0.0015655504570468,101.05069601814,1.2566370614359,1010507.6772313,1009836.428338,-7.4407194286655e-09,1010506.9601814
57.274999493256,-0.0017229607419816,101.05061982234,1.2566370614359,1010507.036834,1009761.0463141,-8.3302146565827e-09,1010506.1982234
64.002499442582,-0.001893181301974,101.05052757963,1.2566370614359,1010506.2618091,1009678.9143257,-9.3086517672546e-09,1010505.2757963
71.40274938684,-0.0020771179197227,101.05041608819,1.2566370614359,1010505.3252542,1009589.4566308,-1.0384922259302e-08,1010504.1608819
79.543024325524,-0.0022757028930239,101.05028153216,1.2566370614359,1010504.1950784,1009492.0527529,-1.1568805857179e-08,1010502.8153216
88.497326758076,-0.0024899066444894,101.05011936972,1.2566370614359,1010502.8330484,1009386.0345754,-1.2871059020821e-08,1010501.1936972
98.347059433884,-0.0027207436013067,101.04992420089,1.2566370614359,1010501.1936674,1009270.6833239,-1.4303512201197e-08,1010499.2420089
109.18176537727,-0.0029692825690837,101.04968961187,1.2566370614359,1010499.2228532,1009145.226446,-1.5879176681274e-08,1010496.8961187
121.099941915,-0.0032366519000461,101.04940799135,1.2566370614359,1010496.8563808,1009008.8343945,-1.7612361914172e-08,1010494.0799135
134.2099361065,-0.003524047544938,101.04907031438,1.2566370614359,1010494.0180449,1008860.6173284,-1.9518804345923e-08,1010490.7031438
148.63092971715,-0.0038327326036137,101.04866588762,1.2566370614359,1010490.6174985,1008699.6217457,-2.1615808788268e-08,1010486.6588762
164.49402268886,-0.0041640467251642,101.04818205033,1.2566370614359,1010486.5477052,1008524.8270664,-2.3922403485905e-08,1010481.8205033
181.94342495775,-0.0045193983930721,101.04760382237,1.2566370614359,1010481.6819488,1008335.1421918,-2.6459510100285e-08,1010476.0382237
201.13776745353,-0.0049002678463667,101.04691349226,1.2566370614359,1010475.8703136,1008129.4020673,-2.925012990538e-08,1010469.1349226
222.25154419888,-0.0053082021361313,101.0460901343,1.2566370614359,1010468.9355658,1007906.3642877,-3.2319547555297e-08,1010460.901343
245.47669861877,-0.0057448089086862,101.04510904395,1.2566370614359,1010460.668324,1007664.7057883,-3.5695553832918e-08,1010451.0904395
271.02436848064,-0.0062117491401525,101.04394107895,1.2566370614359,1010450.8214144,1007403.0196816,-3.9408688814333e-08,1010439.4107895
299.12680532871,-0.0067107279984808,101.04255189156,1.2566370614359,1010439.1032829,1007119.8123074,-4.3492506873855e-08,1010425.5189156
330.03948586158,-0.0072434807994374,101.04090103535,1.2566370614359,1010425.1703178,1006813.5005872,-4.7983864892624e-08,1010409.0103535
364.04343444774,-0.0078117587378865,101.03894092912,1.2566370614359,1010408.6179195,1006482.4097931,-5.2923234898487e-08,1010389.4092912
401.44777789251,-0.0084173091138194,101.03661565691,1.2566370614359,1010388.9701409,1006124.7718713,-5.8355042126302e-08,1010366.1565691
442.59255568176,-0.0090618545846649,101.03385958247,1.2566370614359,1010365.667689,1005738.7245,-6.4328029106316e-08,1010338.5958247
487.85181124994,-0.0097470644406,101.03059575315,1.2566370614359,1010338.0540723,1005322.3111064,-7.0895645810472e-08,1010305.9575315
537.63699237493,-0.010474523183411,101.0267340679,1.2566370614359,1010305.3596413,1004873.4821337,-7.8116465041028e-08,1010267.340679
592.40069161242,-0.011245692251874,101.0221691814,1.2566370614359,1010266.6832726,1004390.0979277,-8.6054621037299e-08,1010221.691814
652.64076077367,-0.012061862047406,101.016778116,1.2566370614359,1010220.9714129,1003869.9337207,-9.4780267577918e-08,1010167.78116
718.90483685103,-0.012924098342108,101.01041755461,1.2566370614359,1010166.9942025,1003310.6873244,-1.0437004949901e-07,1010104.1755461
791.79532053614,-0.013833178312965,101.0029207873,1.2566370614359,1010103.3184104,1002709.990321,-1.1490757830958e-07,1010029.207873
871.97485258975,-0.014789510434793,100.9940942891,1.2566370614359,1010028.2769049,1002065.4237652,-1.2648389816859e-07,1009940.942891
960.17233784872,-0.015793042463862,100.98371391644,1.2566370614359,1009939.9344395,1001374.539703,-1.3919792250444e-07,1009837.1391644
1057.1895716336,-0.016843151070673,100.97152071818,1.2566370614359,1009836.0496258,1000634.8901984,-1.531568134937e-07,1009715.2071818
1163.908528797,-0.017938510313093,100.95721637697,1.2566370614359,1009714.0330538,999844.06611324,-1.6847626580319e-07,1009572.1637697
1281.2993816767,-0.019076933332231,100.94045832329,1.2566370614359,1009570.9017176,998999.74868223,-1.8528064156218e-07,1009404.5832329
1410.4293198443,-0.020255181803266,100.92085460515,1.2566370614359,1009403.230171,998099.77811625,-2.0370288433992e-07,1009208.5460515
1552.4722518287,-0.021468737523603,100.89795865249,1.2566370614359,1009207.0992411,997142.24517435,-2.2388411449827e-07,1008979.5865249
1708.7194770116,-0.022711519472823,100.87126415411,1.2566370614359,1008978.0436953,996125.61398301,-2.4597277481618e-07,1008712.6415411
1880.5914247128,-0.023975534435069,100.84020038611,1.2566370614359,1008711.0010368,995048.88736056,-2.7012315139685e-07,1008402.0038611
2069.6505671841,-0.025250445229894,100.80412849385,1.2566370614359,1008400.2648221,993911.82940362,-2.9649303766847e-07,1008041.2849385
2277.6156239025,-0.026523033182327,100.76233945777,1.2566370614359,1008039.4475232,992715.26383286,-3.252402352414e-07,1007623.3945777
2506.3771862927,-0.027776531462908,100.7140547967,1.2566370614359,1007621.4602353,991461.47017164,-3.5651749033014e-07,1007140.547967
2758.014904922,-0.028989814167622,100.65843150362,1.2566370614359,1007138.5197745,990154.70276967,-3.9046534370034e-07,1006584.3150362
3034.8163954142,-0.030136422487272,100.59457328485,1.2566370614359,1006582.1981091,988801.85952347,-4.2720222077358e-07,1005945.7328485
3339.2980349556,-0.031183429389424,100.52155094417,1.2566370614359,1005943.5348398,987413.3274783,-4.6681090223991e-07,1005215.5094417
3674.2278384512,-0.032090153374017,100.43843571357,1.2566370614359,1005213.2411401,986004.0309415,-5.0932029179125e-07,1004384.3571357
4042.6506222963,-0.032806761637049,100.3443505342,1.2566370614359,1004382.0331715,984594.70378735,-5.5468113825313e-07,1003443.505342
4447.9156845259,-0.033272825484619,100.2385457093,1.2566370614359,1003441.1450049,983213.40037224,-6.0273408489943e-07,1002385.457093
4893.7072529785,-0.03341595289541,100.12050699324,1.2566370614359,1002383.0852558,981897.2471321,-6.5316813514488e-07,1001205.0699324
5384.0779782764,-0.03315065275323,99.990105870709,1.2566370614359,1001202.7180626,980694.41630552,-7.0546739406616e-07,999901.05870709
5884.0779782764,-0.032265350083796,99.858199724149,1.2566370614359,999898.77455673,979731.27648435,-7.5509856780293e-07,998581.99724149
6384.0779782764,-0.030940433200567,99.729816188881,1.2566370614359,998579.81475908,979032.86661394,-8.0073816471173e-07,997298.1618888
6884.0779782764,-0.029270099496976,99.60670448587,1.2566370614359,997296.10776432,978597.31803812,-8.4214492627981e-07,996067.0448587
7384.0779782764,-0.027285425154272,99.490239025513,1.2566370614359,996065.14337476,978421.97100242,-8.790999694672e-07,994902.39025513
7884.0779782764,-0.025014858924747,99.38167056636,1.2566370614359,994900.66349947,978503.17086145,-9.1140794375893e-07,993816.7056636
8384.0779782764,-0.022487192421876,99.282136669636,1.2566370614359,993815.17350485,978836.18774822,-9.3889806382043e-07,992821.36669636
8884.0779782764,-0.019731221977925,99.192660334995,1.2566370614359,992820.046784,979415.18793974,-9.6142501229723e-07,991926.60334995
9384.0779782764,-0.016775556709094,99.114149981749,1.2566370614359,991925.51112843,980233.23358173,-9.7886970798673e-07,991141.49981749
9884.0779782764,-0.013648539007679,99.047400193793,1.2566370614359,991140.64854668,981282.30037119,-9.9113993532123e-07,990474.00193793
10384.077978276,-0.010378192597946,98.993092780902,1.2566370614359,990473.40271742,982553.30774564,-9.9817083183485e-07,989930.92780902
10884.077978276,-0.0069921764343127,98.951798046707,1.2566370614359,989930.58960605,984036.1584404,-9.9992523103726e-07,989517.98046707
11384.077978276,-0.003517736127793,98.923976240108,1.2566370614359,989517.91014779,985719.78548948,-9.9639385888202e-07,989239.76240108
11884.077978276,1.8352155160925e-05,98.909979199969,1.2566370614359,989239.96476693,987592.20542762,-9.8759538279065e-07,989099.79199969
12384.077978276,0.003589839479091,98.910052223028,1.2566370614359,989100.26982754,989640.57684489,-9.7357631297359e-07,989100.52223028
12884.077978276,0.0071710683674889,98.924336161748,1.2566370614359,989101.27631786,991851.26367385,-9.5441075656945e-07,989243.36161748
13384.077978276,0.010737037967019,98.952869777726,1.2566370614359,989244.39083366,994209.90271731,-9.3020002590235e-07,989528.69777726
13884.077978276,0.014263474117784,98.995592354389,1.2566370614359,989529.99911785,996701.4749929,-9.0107210292806e-07,989955.92354389
14384.077978276,0.017726896577334,99.052346588504,1.2566370614359,989957.49219277,999310.3805012,-8.6718096270012e-07,990523.46588504
14884.077978276,0.021104692424048,99.122881749165,1.2566370614359,990525.29528067,1002020.5160336,-8.2870575943198e-07,991228.81749165
15384.077978276,0.024375185453283,99.206857128856,1.2566370614359,991230.89939904,1004815.3556325,-7.8584987945806e-07,992068.57128856
15884.077978276,0.027517705798233,99.303845770641,1.2566370614359,992070.89587695,1007678.0333071,-7.3883986609964e-07,993038.45770641
16384.077978276,0.030512658464711,99.413338472369,1.2566370614359,993041.0136316,1010591.4275957,-6.8792422211913e-07,994133.38472369
16884.077978276,0.033341590180661,99.534748063586,1.2566370614359,994136.1592161,1013538.2475523,-6.3337209609312e-07,995347.48063586
17384.077978276,0.035987251489415,99.667413948437,1.2566370614359,995350.45959323,1016501.1197254,-5.7547185964809e-07,996674.13948437
17884.077978276,0.038433656895526,99.810606895633,1.2566370614359,996677.30756889,1019462.6756859,-5.1452958308001e-07,998106.06895633
18384.077978276,0.040666142838456,99.963534067746,1.2566370614359,998109.40969668,1022405.6396552,-4.5086741741572e-07,999635.34067746
18884.077978276,0.042671415367322,100.12534428117,1.2566370614359,999638.83657416,1025312.91578,-3.8482189146898e-07,1001253.4428117
19384.077978276,0.044437601560706,100.2951334558,1.2566370614359,1001257.0754465,1028167.6745993,-3.1674213289305e-07,1002951.334558
19884.077978276,0.045954286153448,100.47195026927,1.2566370614359,1002955.0847065,1030953.4382514,-2.4698802263377e-07,1004719.5026927
20384.077978276,0.047212550110866,100.65480195697,1.2566370614359,1004723.3504392,1033654.1639713,-1.7592829253893e-07,1006548.0195697
20884.077978276,0.048204998866587,100.84266026555,1.2566370614359,1006551.9444252,1036254.3254378,-1.0393857618027e-07,1008426.6026555
21384.077978276,0.048925782882985,101.03446751871,1.2566370614359,1008430.5836764,1038738.99154,-3.1399423191881e-08,1010344.6751871
21884.077978276,0.049370618848275,101.22914276495,1.2566370614359,1010348.6910964,1041093.9021434,4.1305712378612e-08,1012291.4276495
22384.077978276,0.049536793833545,101.42558800945,1.2566370614359,1012295.4569573,1043305.540452,1.1379249907199e-07,1014255.8800945
22884.077978276,0.049423169112724,101.62269446271,1.2566370614359,1014259.9012199,1045361.2015812,1.8567775965757e-07,1016226.9446271
23384.077978276,0.049030177316332,101.81934880424,1.2566370614359,1016230.9360193,1047249.056974,2.565814966719e-07,1018193.4880424
23884.077978276,0.048359806889435,102.01443943497,1.2566370614359,1018197.4283004,1048958.2143144,3.2612890114864e-07,1020144.3943497
24384.077978276,0.047415583441198,102.20686266786,1.2566370614359,1020148.2623416,1050478.7726195,3.939523339212e-07,1022068.6266786
24884.077978276,0.046202542892729,102.39552884421,1.2566370614359,1022072.4016573,1051801.8722107,4.5969326902465e-07,1023955.2884421
25384.077978276,0.044727197808897,102.57936834323,1.2566370614359,1023958.9501601,1052919.7392969,5.2300418892366e-07,1025793.6834323
25884.077978276,0.042997496240011,102.75733745754,1.2566370614359,1025797.2122517,1053825.7249294,5.8355042154812e-07,1027573.3745754
26384.077978276,0.041022771949838,102.928424105,1.2566370614359,1027576.7515756,1054514.338116,6.4101190942545e-07,1029284.24105
26884.077978276,0.038813691123246,103.09165334243,1.2566370614359,1029287.4481301,1054981.2729161,6.950849015577e-07,1030916.5334243
27384.077978276,0.036382190385297,103.24609266729,1.2566370614359,1030919.5534014,1055223.429368,7.4548355909997e-07,1032460.9266729
27884.077978276,0.033741409614686,103.39085707277,1.2566370614359,1032463.7433753,1055238.9281336,7.9194146635213e-07,1033908.5707277
28384.077978276,0.030905617004879,103.52511383552,1.2566370614359,1033911.1690817,1055027.1187781,8.3421303907661e-07,1035251.1383552
28884.077978276,0.027890131166659,103.6480870052,1.2566370614359,1035253.5044665,1054588.5816381,8.720748226976e-07,1036480.870052
29384.077978276,0.024711237051291,103.75906158409,1.2566370614359,1036482.9912804,1053925.1232619,9.0532667351914e-07,1037590.6158409
29884.077978276,0.021386095132571,103.85738737214,1.2566370614359,1037592.4808681,1053039.7654447,9.3379281671806e-07,1038573.8737214
30384.077978276,0.017932650588875,103.94248245065,1.2566370614359,1038575.4726114,1051936.7279107,9.57322775519e-07,1039424.8245065
30884.077978276,0.014369533534478,104.01383630466,1.2566370614359,1039426.1487592,1050621.4047318,9.7579216663967e-07,1040138.3630466
31384.077978276,0.010715959925002,104.07101254823,1.2566370614359,1040139.4056427,1049100.3346023,9.8910335780163e-07,1040710.1254823
31884.077978276,0.0069916277066149,104.11365125556,1.2566370614359,1040710.880921,1047381.1651259,9.9718598383076e-07,1041136.5125556
32384.077978276,0.0032166098942721,104.14147087877,1.2566370614359,1041136.9768836,1045472.6112977,9.9999731861931e-07,1041414.7087877
32884.077978276,-0.00058875107671411,104.15426974036,1.2566370614359,1041414.8796205,1043384.4084006,9.9752250098323e-07,1041542.6974036
33384.077978276,-0.0044039528565307,104.15192710517,1.2566370614359,1041542.5739375,1041127.2595602,9.8977461322085e-07,1041519.2710517
33884.077978276,-0.0082084448963098,104.1344038167,1.2566370614359,1041518.8540685,1038712.7782334,9.7679461195767e-07,1041344.038167
34384.077978276,-0.011981735257534,104.10174248893,1.2566370614359,1041343.3300293,1036153.4259332,9.5865111164281e-07,1041017.4248893
34884.077978276,-0.015703499930636,104.05406727304,1.2566370614359,1041016.4295274,1033462.445514,9.3544002184163e-07,1040540.6727304
35384.077978276,-0.019353694550449,103.99158318928,1.2566370614359,1040539.3956218,1030653.7903713,9.0728404024176e-07,1039915.8318928
35884.077978276,-0.022912656748973,103.91457501424,1.2566370614359,1039914.2800325,1027742.0499239,8.7433200405269e-07,1039145.7501424
36384.077978276,-0.02636121288988,103.8234057609,1.2566370614359,1039143.9320055,1024742.3717739,8.3675810322749e-07,1038234.057609
36884.077978276,-0.029680780009328,103.71851473397,1.2566370614359,1038231.9831053,1021670.3809523,7.9476095966568e-07,1037185.1473397
37384.077978276,-0.032853463449942,103.60041517958,1.2566370614359,1037182.8277607,1018542.0966751,7.4856257726482e-07,1036004.1517958
37884.077978276,-0.035862152622261,103.46969154656,1.2566370614359,1036001.5997549,1015373.8470493,6.9840716837086e-07,1034696.9154656
38384.077978276,-0.038690610736623,103.32699636662,1.2566370614359,1034694.1448304,1012182.182177,6.4455986283106e-07,1033269.9636662
38884.077978276,-0.041323563448977,103.1730467775,1.2566370614359,1033266.9894848,1008983.7861155,5.873053064734e-07,1031730.467775
39384.077978276,-0.043746776234037,103.00862069343,1.2566370614359,1031727.3061957,1005795.3881586,5.2694615642133e-07,1030086.2069343
39884.077978276,-0.045947130747264,102.83455266767,1.2566370614359,1030082.8751197,1002633.6739042,4.6380148119779e-07,1028345.5266767
40384.077978276,-0.047912696505512,102.65172945126,1.2566370614359,1028342.0427124,999515.19657992,3.9820507407584e-07,1026517.2945126
40884.077978276,-0.049632791557163,102.46108526654,1.2566370614359,1026513.677311,996456.28909139,3.3050368859182e-07,1024610.8526654
41384.077978276,-0.051098039706808,102.26359683921,1.2566370614359,1024607.1218647,993472.97725923,2.6105520554836e-07,1022635.9683921
41884.077978276,-0.052300420961337,102.06027820278,1.2566370614359,1022632.1442524,990580.89470073,1.9022674119688e-07,1020602.7820278
42384.077978276,-0.053233311115335,101.85217530225,1.2566370614359,1020598.8853232,987795.19980592,1.1839270659988e-07,1018521.7530225
42884.077978276,-0.053891520250404,101.64036044026,1.2566370614359,1018517.8049307,985130.49524536,4.5932828431694e-08,1016403.6044026
43384.077978276,-0.054271317939485,101.42592657009,1.2566370614359,1016399.6263919,982600.75043448,-2.6769858319935e-08,1014259.2657009
43884.077978276,-0.054370453320437,101.20998148836,1.2566370614359,1014255.2794169,980219.22736328,-9.9331035140656e-08,1012099.8148836
44384.077978276,-0.054188165657134,100.99364194786,1.2566370614359,1012095.8420335,977998.41018253,-1.7136713156119e-07,1009936.4194786
44884.077978276,-0.053725191342745,100.77802772831,1.2566370614359,1009932.4817161,975949.93891794,-2.4249735277472e-07,1007780.2772831
45384.077978276,-0.052983756596849,100.56425567935,1.2566370614359,1007776.3960935,974084.54766173,-3.123456925817e-07,1005642.5567935
45884.077978276,-0.051967567016689,100.35343379253,1.2566370614359,1005638.7533798,972412.00756772,-3.8054292102126e-07,1003534.3379253
46384.077978276,-0.050681787803199,100.14665531483,1.2566370614359,1003530.6330948,970941.07495037,-4.4672853618229e-07,1001466.5531483
