time,flux,h,injection_area,pp_0,pp_inf,tidal_head,wellPP
0,0,101.05102220186,1.2566370614359,0,0,0,0
1,0,101.05102220186,1.2566370614359,1010511.3464566,1010485.9911206,-1.4544410382007e-10,1010510.2220186
2.1,-0.00015042872491334,101.05102220186,1.2566370614359,1010510.4237746,1010467.0568267,-3.0543261435009e-10,1010510.2220186
3.31,-0.00027956676271896,101.05102075336,1.2566370614359,1010510.4184395,1010448.495742,-4.814199667457e-10,1010510.2075336
4.641,-0.00041725756733251,101.05101779217,1.2566370614359,1010510.398323,1010429.6096476,-6.7500603694961e-10,1010510.1779217
6.1051,-0.00055377017283504,101.05101293058,1.2566370614359,1010510.3629124,1010410.0814063,-8.8795068467744e-10,1010510.1293058
7.71561,-0.00068798221911348,101.05100583324,1.2566370614359,1010510.3085002,1010389.7097594,-1.1221897503008e-09,1010510.0583324
9.487171,-0.00082100988691495,101.05099613403,1.2566370614359,1010510.2317542,1010368.3416731,-1.3798526508756e-09,1010509.9613403
11.4358881,-0.00095457036586556,101.05098340193,1.2566370614359,1010510.1289699,1010345.8470222,-1.6632817350412e-09,1010509.8340193
13.57947691,-0.001090344106452,101.05096711825,1.2566370614359,1010509.9957747,1010322.1070694,-1.9750535724212e-09,1010509.6711825
15.937424601,-0.0012297970789858,101.05094665848,1.2566370614359,1010509.8269201,1010297.0084955,-2.3180023706367e-09,1010509.4665848
18.5311670611,-0.0013741691638854,101.0509212743,1.2566370614359,1010509.6161063,1010270.4399939,-2.6952457322324e-09,1010509.212743
21.38428376721,-0.0015245110780696,101.05089007372,1.2566370614359,1010509.3558029,1010242.290175,-3.1102129848979e-09,1010508.9007372
24.522712143931,-0.0016817252336737,101.05085199821,1.2566370614359,1010509.0370494,1010212.4461923,-3.566676341488e-09,1010508.5199821
27.974983358324,-0.001846600117795,101.05080579598,1.2566370614359,1010508.6492251,1010180.7927895,-4.0687851717294e-09,1010508.0579598
31.772481694157,-0.0020198409646185,101.05074999094,1.2566370614359,1010508.1797808,1010147.2116081,-4.6211036953111e-09,1010507.4999094
35.949729863572,-0.0022020946601341,101.05068284645,1.2566370614359,1010507.6139269,1010111.5806693,-5.2286524365364e-09,1010506.8284645
40.544702849929,-0.0023939675686715,101.05060232309,1.2566370614359,1010506.9342702,1010073.7739993,-5.8969538140733e-09,1010506.0232309
45.599173134922,-0.0025960408876878,101.05050602962,1.2566370614359,1010506.1203913,1010033.661427,-6.6320822758114e-09,1010505.0602962
51.159090448415,-0.002808879448683,101.05039116592,1.2566370614359,1010505.148353,1009991.1086555,-7.4407194286655e-09,1010503.9116592
57.274999493256,-0.0030330317172001,101.05025445693,1.2566370614359,1010503.9901304,1009945.9777932,-8.3302146565827e-09,1010502.5445693
64.002499442582,-0.0032690275083321,101.05009207653,1.2566370614359,1010502.61295,1009898.1286238,-9.3086517672546e-09,1010500.9207653
71.40274938684,-0.003517359935483,101.04989956005,1.2566370614359,1010500.9785292,1009847.4209568,-1.0384922259302e-08,1010498.9956005
79.543024325524,-0.0037784659360029,101.04967170491,1.2566370614359,1010499.0422021,1009793.7184204,-1.1568805857179e-08,1010496.7170491
88.497326758076,-0.0040526897942027,101.04940245832,1.2566370614359,1010496.7519283,1009736.894003,-1.2871059020821e-08,1010494.0245832
98.347059433884,-0.0043402395861874,101.04908479231,1.2566370614359,1010494.0471703,1009676.8375202,-1.4303512201197e-08,1010490.8479231
109.18176537727,-0.0046411314906607,101.04871056646,1.2566370614359,1010490.8576478,1009613.4649798,-1.5879176681274e-08,1010487.1056646
121.099941915,-0.0049551311036735,101.04827038005,1.2566370614359,1010487.1019661,1009546.7295858,-1.7612361914172e-08,1010482.7038005
134.2099361065,-0.0052816812711199,101.04775341571,1.2566370614359,1010482.6861414,1009476.6338747,-1.9518804345923e-08,1010477.5341571
148.63092971715,-0.0056198372615702,101.04714727937,1.2566370614359,1010477.5020399,1009403.2422782,-2.1615808788268e-08,1010471.4727937
164.49402268886,-0.0059682037741892,101.0464378412,1.2566370614359,1010471.4257807,1009326.6932679,-2.3922403485905e-08,1010464.378412
181.94342495775,-0.0063248738191888,101.04560908432,1.2566370614359,1010464.3161465,1009247.2101802,-2.6459510100285e-08,1010456.0908432
201.13776745353,-0.0066873888328296,101.04464297105,1.2566370614359,1010456.0130734,1009165.1098385,-2.925012990538e-08,1010446.4297105
222.25154419888,-0.0070527086794082,101.04351933556,1.2566370614359,1010446.3363144,1009080.8081681,-3.2319547555297e-08,1010435.1933556
245.47669861877,-0.0074172065205103,101.04221581616,1.2566370614359,1010435.0843663,1008994.8221086,-3.5695553832918e-08,1010422.1581616
271.02436848064,-0.0077766837952925,101.04070783953,1.2566370614359,1010422.0337916,1008907.7672524,-3.9408688814333e-08,1010407.0783953
299.12680532871,-0.0081264102927341,101.03896867221,1.2566370614359,1010406.9390594,1008820.3507589,-4.3492506873855e-08,1010389.6867221
330.03948586158,-0.0084611944466059,101.03696955455,1.2566370614359,1010389.5330571,1008733.359226,-4.7983864892624e-08,1010369.6955455
364.04343444774,-0.0087754803327911,101.03467993159,1.2566370614359,1010369.5284259,1008647.6413639,-5.2923234898487e-08,1010346.7993159
401.44777789251,-0.0090634693466186,101.03206779503,1.2566370614359,1010346.6198642,1008564.0855377,-5.8355042126302e-08,1010320.6779503
442.59255568176,-0.009319276334843,101.02910014875,1.2566370614359,1010320.4875406,1008483.5925635,-6.4328029106316e-08,1010291.0014875
487.85181124994,-0.0095371009326102,101.02574360323,1.2566370614359,1010290.801742,1008407.0445633,-7.0895645810472e-08,1010257.4360323
537.63699237493,-0.0097114199851681,101.02196510333,1.2566370614359,1010257.2288096,1008335.2712031,-7.8116465041028e-08,1010219.6510333
592.40069161242,-0.0098371851752262,101.01773278371,1.2566370614359,1010219.4384076,1008269.0152075,-8.6054621037299e-08,1010177.3278371
652.64076077367,-0.0099100166056379,101.01301694164,1.2566370614359,1010177.1120703,1008208.8995913,-9.4780267577918e-08,1010130.1694164
718.90483685103,-0.0099263749977323,101.00779110928,1.2566370614359,1010129.952921,1008155.3994648,-1.0437004949901e-07,1010077.9110928
791.79532053614,-0.0098837041163371,101.00203320482,1.2566370614359,1010077.6963911,1008108.8214409,-1.1490757830958e-07,1010020.3320482
871.97485258975,-0.0097805195279443,100.9957267368,1.2566370614359,1010020.1217258,1008069.2934816,-1.2648389816859e-07,1009957.267368
960.17233784872,-0.0096164432426101,100.98886204456,1.2566370614359,1009957.0640266,1008036.7674022,-1.3919792250444e-07,1009888.6204456
1057.1895716336,-0.0093921705326327,100.98143756006,1.2566370614359,1009888.4266571,1008011.0351916,-1.531568134937e-07,1009814.3756006
1163.908528797,-0.0091093779536255,100.97346109464,1.2566370614359,1009814.1938651,1007991.7588998,-1.6847626580319e-07,1009734.6109464
1281.2993816767,-0.0087705778859879,100.96495116588,1.2566370614359,1009734.4436566,1007978.5122782,-1.8528064156218e-07,1009649.5116588
1410.4293198443,-0.0083789387340807,100.95593839985,1.2566370614359,1009649.3610719,1007970.8309021,-2.0370288433992e-07,1009559.3839985
1552.4722518287,-0.0079380950511627,100.94646705634,1.2566370614359,1009559.2522163,1007968.2664594,-2.2388411449827e-07,1009464.6705634
1708.7194770116,-0.0074519720453974,100.93659672907,1.2566370614359,1009464.55952,1007970.4405066,-2.4597277481618e-07,1009365.9672907
1880.5914247128,-0.0069246377993797,100.92640426568,1.2566370614359,1009365.8787464,1007977.0934154,-2.7012315139685e-07,1009264.0426568
2069.6505671841,-0.0063602202419274,100.91598594574,1.2566370614359,1009263.9781955,1007988.1254011,-2.9649303766847e-07,1009159.8594574
2277.6156239025,-0.0057628676001396,100.90545989478,1.2566370614359,1009159.8204861,1008003.6282205,-3.252402352414e-07,1009054.5989478
2506.3771862927,-0.0051367681359164,100.89496870748,1.2566370614359,1009054.5866948,1008023.9079666,-3.5651749033014e-07,1008949.6870748
2756.3771862927,-0.0044867859090906,100.88474913057,1.2566370614359,1008949.7025609,1008049.3636026,-3.902460447111e-07,1008847.4913057
3006.3771862927,-0.0038308149029246,100.87582269036,1.2566370614359,1008847.5347871,1008078.5017667,-4.2345870218917e-07,1008758.2269036
3256.3771862927,-0.0032244673138806,100.86820130149,1.2566370614359,1008758.296265,1008110.9126264,-4.5611155634337e-07,1008682.0130149
3506.3771862927,-0.0026684687118751,100.86178623839,1.2566370614359,1008682.1061096,1008146.3700778,-4.8816144080069e-07,1008617.8623839
3756.3771862927,-0.0021582430329801,100.85647733199,1.2566370614359,1008617.9772601,1008184.7293406,-5.1956598630115e-07,1008564.7733199
4006.3771862927,-0.0016891834662407,100.85218351727,1.2566370614359,1008564.9082222,1008225.8869513,-5.5028367670901e-07,1008521.8351727
4256.3771862927,-0.0012571174790518,100.84882289443,1.2566370614359,1008521.9885237,1008269.7600995,-5.8027390389624e-07,1008488.2289443
4506.3771862927,-0.00085831632963689,100.8463218649,1.2566370614359,1008488.3993256,1008316.2755186,-6.094970214256e-07,1008463.218649
4756.3771862927,-0.00048945907692262,100.84461424846,1.2566370614359,1008463.4047842,1008365.3635189,-6.3791439696237e-07,1008446.1424846
5006.3771862927,-0.00014759936176529,100.84364047185,1.2566370614359,1008446.3432225,1008416.9548098,-6.6548846334544e-07,1008436.4047185
5256.3771862927,0.00016987286766736,100.84334682359,1.2566370614359,1008436.6190195,1008470.9788317,-6.9218276825034e-07,1008433.4682359
5506.3771862927,0.0004652641627119,100.84368478489,1.2566370614359,1008433.6951588,1008527.3629033,-7.1796202237841e-07,1008436.8478489
5756.3771862927,0.00074060993161638,100.84461042583,1.2566370614359,1008437.0865392,1008586.0318095,-7.4279214610849e-07,1008446.1042583
6006.3771862927,0.00099770376344071,100.84608386593,1.2566370614359,1008446.3539381,1008646.907629,-7.6664031454944e-07,1008460.8386593
6256.3771862927,0.0012381246921683,100.84806879304,1.2566370614359,1008461.098618,1008709.9096906,-7.8947500093399e-07,1008480.6879304
6506.3771862927,0.0014632607157473,100.8505320365,1.2566370614359,1008480.9575166,1008774.9546022,-8.1126601829637e-07,1008505.320365
6756.3771862927,0.0016743310043578,100.85344318705,1.2566370614359,1008505.5989793,1008841.9563194,-8.3198455937891e-07,1008534.4318705
7006.3771862927,0.0018724061986921,100.85677426099,1.2566370614359,1008534.7189592,1008910.8262364,-8.5160323471459e-07,1008567.7426099
7256.3771862927,0.0020584229782788,100.86049940463,1.2566370614359,1008568.037659,1008981.4732918,-8.7009610883529e-07,1008604.9940463
7506.3771862927,0.0022331988919605,100.86459462781,1.2566370614359,1008605.2965769,1009053.8040823,-8.8743873455798e-07,1008645.9462781
7756.3771862927,0.0023974522442177,100.86903756687,1.2566370614359,1008646.2558418,1009127.7229829,-9.0360818530335e-07,1008690.3756687
8006.3771862927,0.0025518065518016,100.87380728724,1.2566370614359,1008690.6918438,1009203.1322712,-9.1858308540423e-07,1008738.0728724
8256.3771862927,0.0026968061606778,100.8788840948,1.2566370614359,1008738.3952601,1009279.9322561,-9.323436383638e-07,1008788.840948
8506.3771862927,0.0028329248222373,100.88424937842,1.2566370614359,1008789.1691699,1009358.0214086,-9.4487165302613e-07,1008842.4937842
8756.3771862927,0.0029605732583379,100.88988546951,1.2566370614359,1008842.8274794,1009437.2964959,-9.5615056762448e-07,1008898.8546951
9006.3771862927,0.0030801084116283,100.89577551658,1.2566370614359,1008899.1935178,1009517.6527179,-9.661654716756e-07,1008957.7551658
9256.3771862927,0.0031918397747166,100.90190337829,1.2566370614359,1008958.0987834,1009598.9838452,-9.7490312569111e-07,1009019.0337829
9506.3771862927,0.0032960335471986,100.90825352904,1.2566370614359,1009019.3818742,1009681.1823596,-9.8235197867974e-07,1009082.5352904
9756.3771862927,0.003392921136967,100.91481097283,1.2566370614359,1009082.887544,1009764.1395967,-9.8850218341758e-07,1009148.1097283
10006.377186293,0.0034827028678313,100.92156117404,1.2566370614359,1009148.4658412,1009847.7458887,-9.9334560946586e-07,1009215.6117404
10256.377186293,0.0035655512751795,100.9284899956,1.2566370614359,1009215.9714171,1009931.89071,-9.9687585391918e-07,1009284.899956
10506.377186293,0.0036416156000622,100.93558364369,1.2566370614359,1009285.2629071,1010016.4628231,-9.990882498701e-07,1009355.8364369
10756.377186293,0.003711025721517,100.94282862141,1.2566370614359,1009356.2023787,1010101.3504256,-9.9997987257859e-07,1009428.2862141
11006.377186293,0.0037738947406662,100.95021169025,1.2566370614359,1009428.6548675,1010186.4412979,-9.9954954333856e-07,1009502.1169025
11256.377186293,0.0038303210405064,100.95771983672,1.2566370614359,1009502.4879928,1010271.6229519,-9.9779783103605e-07,1009577.1983672
11506.377186293,0.0038803913943159,100.96534024305,1.2566370614359,1009577.5716232,1010356.7827792,-9.9472705139713e-07,1009653.4024305
11756.377186293,0.0039241839617115,100.97306026413,1.2566370614359,1009653.7775843,1010441.8082007,-9.9034126392667e-07,1009730.6026413
12006.377186293,0.0039617682137471,100.98086741032,1.2566370614359,1009730.9794281,1010526.5868143,-9.8464626654163e-07,1009808.6741032
12256.377186293,0.003993208228575,100.98874933021,1.2566370614359,1009809.0522607,1010611.0065449,-9.7764958790645e-07,1009887.4933021
12506.377186293,0.0040185628412496,100.99669379987,1.2566370614359,1009887.8725704,1010694.9557912,-9.6936047748025e-07,1009966.9379987
12756.377186293,0.004037888340177,101.00468871241,1.2566370614359,1009967.3181205,1010778.3235742,-9.5978989328926e-07,1010046.8871241
13006.377186293,0.0040512391037779,101.01272207295,1.2566370614359,1010047.2678442,1010860.9996834,-9.4895048744056e-07,1010127.2207295
13256.377186293,0.0040586676379376,101.02078199477,1.2566370614359,1010127.6017951,1010942.8748229,-9.3685658939624e-07,1010207.8199477
13506.377186293,0.0040602277218654,101.02885669563,1.2566370614359,1010208.2011081,1011023.8407555,-9.2352418703019e-07,1010288.5669563
13756.377186293,0.0040559735467282,101.03693450026,1.2566370614359,1010288.947963,1011103.7904458,-9.0897090549244e-07,1010369.3450026
14006.377186293,0.0040459594534958,101.04500384123,1.2566370614359,1010369.7256096,1011182.618202,-8.9321598390911e-07,1010450.0384123
14256.377186293,0.0040302441648704,101.05305325921,1.2566370614359,1010450.4183759,1011260.2198155,-8.762802499487e-07,1010530.5325921
14506.377186293,0.0040088860664976,101.0610714117,1.2566370614359,1010530.9116711,1011336.4926986,-8.5818609228833e-07,1010610.714117
14756.377186293,0.0039819501727975,101.06904707234,1.2566370614359,1010611.092073,1011411.3360201,-8.3895743101643e-07,1010690.4707234
15006.377186293,0.0039495018352466,101.07696914415,1.2566370614359,1010690.8473207,1011484.6508386,-8.1861968601089e-07,1010769.6914415
15256.377186293,0.0039116121727295,101.08482666014,1.2566370614359,1010770.0664473,1011556.3402334,-7.9719974333447e-07,1010848.2666014
15506.377186293,0.0038683546635252,101.09260879481,1.2566370614359,1010848.6397861,1011626.3094326,-7.7472591969209e-07,1010926.0879481
15756.377186293,0.0038198095644898,101.10030486887,1.2566370614359,1010926.4590857,1011694.4659382,-7.5122792499668e-07,1011003.0486887
16006.377186293,0.0037660600910851,101.10790436267,1.2566370614359,1011003.4175564,1011760.7196489,-7.2673682309335e-07,1011079.0436267
16256.377186293,0.0037071939903077,101.11539692214,1.2566370614359,1011079.4100054,1011824.9829783,-7.0128499069364e-07,1011153.9692214
16506.377186293,0.003643305488126,101.12277236776,1.2566370614359,1011154.3328963,1011887.1709718,-6.7490607457421e-07,1011227.7236776
16756.377186293,0.0035744913571561,101.13002070751,1.2566370614359,1011228.0844378,1011947.2014179,-6.4763494709652e-07,1011300.2070751
17006.377186293,0.0035008550362392,101.13713214185,1.2566370614359,1011300.5647141,1012004.9949576,-6.195076601063e-07,1011371.3214185
17256.377186293,0.0034225053945684,101.14409707706,1.2566370614359,1011371.6757343,1012060.4751889,-5.905613972738e-07,1011440.9707706
17506.377186293,0.0033395546344494,101.15090613602,1.2566370614359,1011441.3215663,1012113.5687681,-5.6083442493779e-07,1011509.0613602
17756.377186293,0.0032521211750046,101.15755016482,1.2566370614359,1011509.4084435,1012164.2055064,-5.3036604151825e-07,1011575.5016482
18006.377186293,0.0031603283413983,101.16402024514,1.2566370614359,1011575.8448323,1012212.318463,-4.991965255647e-07,1011640.2024514
18256.377186293,0.0030643038030766,101.17030770404,1.2566370614359,1011640.541555,1012257.8440336,-4.6736708250885e-07,1011703.0770404
18506.377186293,0.0029641811092457,101.17640412256,1.2566370614359,1011703.4118876,1012300.722034,-4.3491979019189e-07,1011764.0412256
18756.377186293,0.0028600971422244,101.18230134743,1.2566370614359,1011764.3716466,1012340.8957806,-4.0189754323849e-07,1011823.0134743
19006.377186293,0.0027521948138947,101.18799149772,1.2566370614359,1011823.3393051,1012378.3121642,-3.68343996351e-07,1011879.9149772
19256.377186293,0.0026406209684625,101.19346697682,1.2566370614359,1011880.2360602,1012412.9217211,-3.343035065989e-07,1011934.6697682
19506.377186293,0.0025255260079503,101.19872048026,1.2566370614359,1011934.9859524,1012444.6786981,-2.998210747797e-07,1011987.2048026
19756.377186293,0.0024070663264931,101.20374500279,1.2566370614359,1011987.5159433,1012473.5411131,-2.6494228592885e-07,1012037.4500279
20006.377186293,0.0022854006027187,101.20853385033,1.2566370614359,1012037.7559873,1012499.4708105,-2.2971324905727e-07,1012085.3385033
20256.377186293,0.0021606933950155,101.21308064446,1.2566370614359,1012085.6391506,1012522.4335116,-1.9418053619629e-07,1012130.8064446
20506.377186293,0.0020331108721519,101.21737933417,1.2566370614359,1012131.1016562,1012542.3988602,-1.5839112083036e-07,1012173.7933417
20756.377186293,0.0019028235846286,101.22142419903,1.2566370614359,1012174.0830011,1012559.3404625,-1.2239231579915e-07,1012214.2419903
21006.377186293,0.0017700071762418,101.22520985792,1.2566370614359,1012214.5259884,1012573.2359219,-8.6231710750962e-08,1012252.0985792
21256.377186293,0.0016348374405906,101.22873127917,1.2566370614359,1012252.3768148,1012584.0668689,-4.995710923027e-08,1012287.3127917
21506.377186293,0.0014974945530063,101.23198378084,1.2566370614359,1012287.5851709,1012591.8189852,-1.3616465482429e-08,1012319.8378084
21756.377186293,0.0013581621717357,101.23496303946,1.2566370614359,1012320.1042453,1012596.4820225,2.2742178940796e-08,1012349.6303946
22006.377186293,0.0012170249661943,101.23766509694,1.2566370614359,1012349.890811,1012598.0498164,5.9070758691132e-08,1012376.6509694
22256.377186293,0.0010742704895019,101.24008636259,1.2566370614359,1012376.9052953,1012596.5202943,9.532124816516e-08,1012400.8636259
22506.377186293,0.00093008944063734,101.24222361886,1.2566370614359,1012401.1117994,1012591.8954782,1.3144572499313e-07,1012422.2361886
22756.377186293,0.00078467188191747,101.24407402758,1.2566370614359,1012422.4781558,1012584.1814819,1.6739643339131e-07,1012440.7402758
23006.377186293,0.00063821105896889,101.24563512873,1.2566370614359,1012440.9759912,1012573.3885032,2.0312584729411e-07,1012456.3512873
23256.377186293,0.00049090197760122,101.24690484674,1.2566370614359,1012456.5807136,1012559.5308102,2.385867331825e-07,1012469.0484674
23506.377186293,0.00034293904441286,101.247881494,1.2566370614359,1012469.2715757,1012542.6267225,2.7373221252576e-07,1012478.81494
23756.377186293,0.00019451913774858,101.24856376967,1.2566370614359,1012479.0317096,1012522.698587,3.0851582375381e-07,1012485.6376967
24006.377186293,4.5838199685578e-05,101.24895076461,1.2566370614359,1012485.8481156,1012499.7727482,3.4289158367852e-07,1012489.5076461
24256.377186293,-0.00010290632967083,101.2490419595,1.2566370614359,1012489.7117105,1012473.8795137,3.7681404828238e-07,1012490.419595
24506.377186293,-0.0002515179839336,101.24883722783,1.2566370614359,1012490.6173096,1012445.0531138,4.1023837279461e-07,1012488.3722783
24756.377186293,-0.00039979868633546,101.24833683394,1.2566370614359,1012488.5636561,1012413.3316565,4.4312037097494e-07,1012483.3683394
