time,flux,h,injection_area,pp_0,pp_inf,tidal_head,wellPP
0,0,101.05102220185,1.2566370614359,0,0,0,0
1,0,101.05102220185,1.2566370614359,1010504.4523917,1010478.7758276,-1.4544410382007e-10,1010510.2220185
2.1,-0.0013770963108186,101.05102220185,1.2566370614359,1010510.8759201,1010457.0974002,-3.0543261435009e-10,1010510.2220185
3.31,-0.0022258067973347,101.05100894157,1.2566370614359,1010510.8227213,1010437.1252615,-4.814199667457e-10,1010510.0894157
4.641,-0.0029704606932933,101.05098536566,1.2566370614359,1010510.643308,1010417.6581181,-6.7500603694961e-10,1010509.8536566
6.1051,-0.0036412766712017,101.05095075599,1.2566370614359,1010510.3653812,1010398.1929197,-8.8795068467744e-10,1010509.5075599
7.71561,-0.0042757435587045,101.0509040879,1.2566370614359,1010509.9795003,1010378.4482621,-1.1221897503008e-09,1010509.040879
9.487171,-0.0048961621258156,101.05084380825,1.2566370614359,1010509.4740063,1010358.2371994,-1.3798526508756e-09,1010508.4380825
11.4358881,-0.0055150414315896,101.05076787928,1.2566370614359,1010508.8325583,1010337.4201008,-1.6632817350412e-09,1010507.6787928
13.57947691,-0.0061396739143323,101.05067380016,1.2566370614359,1010508.0343028,1010315.8836169,-1.9750535724212e-09,1010506.7380016
15.937424601,-0.006774628035479,101.05055859222,1.2566370614359,1010507.0539326,1010293.5302737,-2.3180023706367e-09,1010505.5859222
18.5311670611,-0.0074229674123238,101.05041875743,1.2566370614359,1010505.8614609,1010270.2733029,-2.6952457322324e-09,1010504.1875743
21.38428376721,-0.0080867997329714,101.05025021857,1.2566370614359,1010504.4217704,1010246.0346338,-3.1102129848979e-09,1010502.5021857
24.522712143931,-0.0087674903376947,101.05004824625,1.2566370614359,1010502.6939998,1010220.7452034,-3.566676341488e-09,1010500.4824625
27.974983358324,-0.0094656885842302,101.04980737601,1.2566370614359,1010500.6308119,1010194.3471657,-4.0687851717294e-09,1010498.0737601
31.772481694157,-0.0101812571034,101.0495213189,1.2566370614359,1010498.1775683,1010166.7976584,-4.6211036953111e-09,1010495.213189
35.949729863572,-0.010913138437159,101.04918286882,1.2566370614359,1010495.2714436,1010138.0737063,-5.2286524365364e-09,1010491.8286882
40.544702849929,-0.011659198344853,101.04878381123,1.2566370614359,1010491.840508,1010108.1777405,-5.8969538140733e-09,1010487.8381123
45.599173134922,-0.012416067461652,101.04831483883,1.2566370614359,1010487.8028243,1010077.1431391,-6.6320822758114e-09,1010483.1483883
51.159090448415,-0.013178999734887,101.04776548097,1.2566370614359,1010483.0656137,1010045.0392016,-7.4407194286655e-09,1010477.6548097
57.274999493256,-0.013941778535142,101.04712405519,1.2566370614359,1010477.5245552,1010011.97503,-8.3302146565827e-09,1010471.2405519
64.002499442582,-0.014696665798198,101.0463776497,1.2566370614359,1010471.0633048,1009978.101906,-9.3086517672546e-09,1010463.776497
71.40274938684,-0.015434414645921,101.04551214755,1.2566370614359,1010463.5533191,1009943.6138724,-1.0384922259302e-08,1010455.1214755
79.543024325524,-0.01614435454916,101.04451230369,1.2566370614359,1010454.854092,1009908.7463417,-1.1568805857179e-08,1010445.1230369
88.497326758076,-0.016814535250796,101.04336188643,1.2566370614359,1010444.8139161,1009873.7726377,-1.2871059020821e-08,1010433.6188643
98.347059433884,-0.017431954128963,101.042043896,1.2566370614359,1010433.2712829,1009838.9984343,-1.4303512201197e-08,1010420.43896
109.18176537727,-0.017982852469553,101.0405408712,1.2566370614359,1010420.0570508,1009804.7541044,-1.5879176681274e-08,1010405.408712
121.099941915,-0.018453083269572,101.03883529416,1.2566370614359,1010404.9974875,1009771.3850531,-1.7612361914172e-08,1010388.3529416
134.2099361065,-0.018828553754646,101.03691010067,1.2566370614359,1010387.9182913,1009739.2402085,-1.9518804345923e-08,1010369.1010067
148.63092971715,-0.019095726207263,101.03474929808,1.2566370614359,1010368.6496621,1009708.6589882,-2.1615808788268e-08,1010347.4929808
164.49402268886,-0.019242164297635,101.03233868786,1.2566370614359,1010347.0324474,1009679.9572579,-2.3922403485905e-08,1010323.3868786
181.94342495775,-0.019257109337656,101.02966668193,1.2566370614359,1010322.9253311,1009653.41302,-2.6459510100285e-08,1010296.6668193
201.13776745353,-0.019132047883754,101.02672519257,1.2566370614359,1010296.2129623,1009629.2527896,-2.925012990538e-08,1010267.2519257
222.25154419888,-0.018861241664343,101.02351056749,1.2566370614359,1010266.8148211,1009607.6397787,-3.2319547555297e-08,1010235.1056749
245.47669861877,-0.018442181332528,101.02002453176,1.2566370614359,1010234.6945407,1009588.6650704,-3.5695553832918e-08,1010200.2453176
271.02436848064,-0.017875921799708,101.01627509072,1.2566370614359,1010199.8693065,1009572.3428755,-3.9408688814333e-08,1010162.7509072
299.12680532871,-0.01716727465728,101.01227734312,1.2566370614359,1010162.4188733,1009558.6106988,-4.3492506873855e-08,1010122.7734312
330.03948586158,-0.016324838137206,101.00805414977,1.2566370614359,1010122.4936938,1009547.3347987,-4.7983864892624e-08,1010080.5414977
364.04343444774,-0.015360853600917,101.00363660276,1.2566370614359,1010080.3216151,1009538.3207484,-5.2923234898487e-08,1010036.3660276
401.44777789251,-0.014290909229352,100.99906424367,1.2566370614359,1010036.2125894,1009531.3282711,-5.8355042126302e-08,1009990.6424367
442.59255568176,-0.013133514920034,100.99438497991,1.2566370614359,1009990.5608814,1009526.0889395,-6.4328029106316e-08,1009943.8497991
487.85181124994,-0.011909580561322,100.98965465117,1.2566370614359,1009943.8442657,1009522.3249222,-7.0895645810472e-08,1009896.5465117
537.63699237493,-0.010641841313934,100.9849361996,1.2566370614359,1009896.6197258,1009519.7668206,-7.8116465041028e-08,1009849.361996
592.40069161242,-0.0093542594857644,100.98029839443,1.2566370614359,1009849.5151937,1009518.1688253,-8.6054621037299e-08,1009802.9839443
652.64076077367,-0.0080714100407564,100.9758140618,1.2566370614359,1009803.2168345,1009517.3199011,-9.4780267577918e-08,1009758.140618
718.90483685103,-0.0068178573068534,100.97155777874,1.2566370614359,1009758.4513828,1009517.0504004,-1.0437004949901e-07,1009715.5777874
791.79532053614,-0.0056174885032917,100.96760300462,1.2566370614359,1009715.9631245,1009517.2342434,-1.1490757830958e-07,1009676.0300462
871.97485258975,-0.0044927774972335,100.96401866911,1.2566370614359,1009676.4852567,1009517.7874487,-1.2648389816859e-07,1009640.1866911
960.17233784872,-0.0034639449343053,100.96086530545,1.2566370614359,1009640.7058199,1009518.6642069,-1.3919792250444e-07,1009608.6530545
1057.1895716336,-0.0025480136195205,100.95819092733,1.2566370614359,1009609.2290884,1009519.8518243,-1.531568134937e-07,1009581.9092733
1163.908528797,-0.0017577729678951,100.95602698211,1.2566370614359,1009582.5344045,1009521.3657259,-1.6847626580319e-07,1009560.2698211
1281.2993816767,-0.0011007356653181,100.95438488066,1.2566370614359,1009560.9357751,1009523.2454063,-1.8528064156218e-07,1009543.8488066
1410.4293198443,-0.00057821611910684,100.9532537496,1.2566370614359,1009544.5472271,1009525.5518428,-2.0370288433992e-07,1009532.537496
1552.4722518287,-0.00018471353257891,100.95260014852,1.2566370614359,1009533.2603685,1009528.3665585,-2.2388411449827e-07,1009526.0014852
1708.7194770116,9.2194380041988e-05,100.95237047338,1.2566370614359,1009526.7415666,1009531.7922885,-2.4597277481618e-07,1009523.7047338
1880.5914247128,0.00027123169684659,100.9524965726,1.2566370614359,1009524.4559446,1009535.9550884,-2.7012315139685e-07,1009524.965726
2069.6505671841,0.00037592854461968,100.95290464862,1.2566370614359,1009525.7234482,1009541.0077042,-2.9649303766847e-07,1009529.0464862
2277.6156239025,0.00043223623808399,100.95352680365,1.2566370614359,1009529.8077144,1009547.1340563,-3.252402352414e-07,1009535.2680365
2506.3771862927,0.00046542014488919,100.95431368123,1.2566370614359,1009536.0313351,1009554.5547446,-3.5651749033014e-07,1009543.1368123
2756.3771862927,0.0004955332438652,100.9552396325,1.2566370614359,1009543.9019918,1009563.493503,-3.902460447111e-07,1009552.396325
3006.3771862927,0.00051954682177282,100.95622549364,1.2566370614359,1009553.1630078,1009573.6043373,-4.2345870218917e-07,1009562.2549364
3256.3771862927,0.00055430759042065,100.95725912968,1.2566370614359,1009563.023791,1009584.6826499,-4.5611155634337e-07,1009572.5912968
3506.3771862927,0.00060123242224882,100.95836192212,1.2566370614359,1009573.3630797,1009596.66518,-4.8816144080069e-07,1009583.6192212
3756.3771862927,0.00065326073625294,100.9595580713,1.2566370614359,1009584.3942505,1009609.5230089,-5.1956598630115e-07,1009595.580713
4006.3771862927,0.00070291141748653,100.96085773057,1.2566370614359,1009596.3588421,1009623.2356061,-5.5028367670901e-07,1009608.5773057
4256.3771862927,0.00074682588691988,100.96225616965,1.2566370614359,1009609.3581794,1009637.783884,-5.8027390389624e-07,1009622.5616965
4506.3771862927,0.00078587348771776,100.96374197636,1.2566370614359,1009623.3450134,1009653.1483464,-6.094970214256e-07,1009637.4197636
4756.3771862927,0.00082275692475124,100.9653054681,1.2566370614359,1009638.2053903,1009669.3086105,-6.3791439696237e-07,1009653.054681
5006.3771862927,0.00085961410884204,100.96694233927,1.2566370614359,1009653.8426166,1009686.2432957,-6.6548846334544e-07,1009669.4233927
5256.3771862927,0.00089700492799746,100.96865253764,1.2566370614359,1009670.2136711,1009703.9300129,-6.9218276825034e-07,1009686.5253764
5506.3771862927,0.00093425556917218,100.97043712487,1.2566370614359,1009687.3179899,1009722.3453814,-7.1796202237841e-07,1009704.3712487
5756.3771862927,0.00097036531213592,100.97229582209,1.2566370614359,1009705.1661273,1009741.4650567,-7.4279214610849e-07,1009722.9582209
6006.3771862927,0.001004700715701,100.97422635948,1.2566370614359,1009723.7552551,1009761.2637618,-7.6664031454944e-07,1009742.2635948
6256.3771862927,0.0010371733587581,100.976225207,1.2566370614359,1009743.0626696,1009781.7153225,-7.8947500093399e-07,1009762.25207
6506.3771862927,0.0010680241991291,100.97828865869,1.2566370614359,1009763.0530854,1009802.7927017,-8.1126601829637e-07,1009782.8865869
6756.3771862927,0.0010975154291847,100.98041348799,1.2566370614359,1009783.6894593,1009824.4680355,-8.3198455937891e-07,1009804.1348799
7006.3771862927,0.0011257479036674,100.98259698996,1.2566370614359,1009804.9395316,1009846.71267,-8.5160323471459e-07,1009825.9698996
7256.3771862927,0.0011526506160448,100.9848366603,1.2566370614359,1009826.7762487,1009869.4971986,-8.7009610883529e-07,1009848.366603
7506.3771862927,0.0011780785197448,100.98712985348,1.2566370614359,1009849.1745586,1009892.7915007,-8.8743873455798e-07,1009871.2985348
7756.3771862927,0.0012019085517578,100.98947363535,1.2566370614359,1009872.107998,1009916.5647817,-9.0360818530335e-07,1009894.7363535
8006.3771862927,0.0012240817646777,100.99186482696,1.2566370614359,1009895.547222,1009940.7856138,-9.1858308540423e-07,1009918.6482696
8256.3771862927,0.0012445934022652,100.99430013208,1.2566370614359,1009919.4604407,1009965.4219775,-9.323436383638e-07,1009943.0013208
8506.3771862927,0.0012634551491395,100.996776245,1.2566370614359,1009943.8146924,1009990.4413039,-9.4487165302613e-07,1009967.76245
8756.3771862927,0.0012806660315824,100.99928988329,1.2566370614359,1009968.5769201,1010015.8105182,-9.5615056762448e-07,1009992.8988329
9006.3771862927,0.0012962053768059,101.00183776255,1.2566370614359,1009993.7142979,1010041.4960828,-9.661654716756e-07,1010018.3776255
9256.3771862927,0.001310042063276,101.00441655727,1.2566370614359,1010019.19398,1010067.464042,-9.7490312569111e-07,1010044.1655727
9506.3771862927,0.0013221448571065,101.00702288001,1.2566370614359,1010044.9827093,1010093.6800666,-9.8235197867974e-07,1010070.2288001
9756.3771862927,0.0013324924862983,101.00965328121,1.2566370614359,1010071.0466101,1010120.1094998,-9.8850218341758e-07,1010096.5328121
10006.377186293,0.0013410718805559,101.01230426897,1.2566370614359,1010097.3511858,1010146.7174023,-9.9334560946586e-07,1010123.0426897
10256.377186293,0.0013478758493445,101.01497232539,1.2566370614359,1010123.8615169,1010173.4685991,-9.9687585391918e-07,1010149.7232539
10506.377186293,0.0013529002730868,101.01765391828,1.2566370614359,1010150.5424244,1010200.3277256,-9.990882498701e-07,1010176.5391828
10756.377186293,0.0013561384855576,101.02034550723,1.2566370614359,1010177.3585856,1010227.2592747,-9.9997987257859e-07,1010203.4550723
11006.377186293,0.001357585955222,101.0230435386,1.2566370614359,1010204.2745963,1010254.2276435,-9.9954954333856e-07,1010230.435386
11256.377186293,0.0013572386374039,101.0257444497,1.2566370614359,1010231.2549196,1010281.1971803,-9.9779783103605e-07,1010257.444497
11506.377186293,0.0013550964572021,101.02844466981,1.2566370614359,1010258.2639288,1010308.132232,-9.9472705139713e-07,1010284.4466981
11756.377186293,0.00135116173656,101.03114062807,1.2566370614359,1010285.2659166,1010334.997191,-9.9034126392667e-07,1010311.4062807
12006.377186293,0.001345440879548,101.03382875821,1.2566370614359,1010312.2251748,1010361.7565425,-9.8464626654163e-07,1010338.2875821
12256.377186293,0.0013379413388557,101.03650550674,1.2566370614359,1010339.1060413,1010388.3749111,-9.7764958790645e-07,1010365.0550674
12506.377186293,0.0013286727767646,101.03916733497,1.2566370614359,1010365.8729815,1010414.8171079,-9.6936047748025e-07,1010391.6733497
12756.377186293,0.0013176482261192,101.04181072343,1.2566370614359,1010392.4906093,1010441.048177,-9.5978989328926e-07,1010418.1072343
13006.377186293,0.0013048828544543,101.0444321786,1.2566370614359,1010418.9237312,1010467.0334414,-9.4895048744056e-07,1010444.321786
13256.377186293,0.0012903915296987,101.04702823712,1.2566370614359,1010445.1374125,1010492.738549,-9.3685658939624e-07,1010470.2823712
13506.377186293,0.0012741942505279,101.04959546521,1.2566370614359,1010471.0970211,1010518.1295184,-9.2352418703019e-07,1010495.9546521
13756.377186293,0.0012563124012931,101.05213046889,1.2566370614359,1010496.7682203,1010543.1727832,-9.0897090549244e-07,1010521.3046889
14006.377186293,0.0012367699504441,101.05462989672,1.2566370614359,1010522.1170719,1010567.8352367,-8.9321598390911e-07,1010546.2989672
14256.377186293,0.0012155920648533,101.05709044492,1.2566370614359,1010547.1100628,1010592.0842758,-8.762802499487e-07,1010570.9044492
14506.377186293,0.0011928078811675,101.05950885982,1.2566370614359,1010571.7141572,1010615.8878435,-8.5818609228833e-07,1010595.0885982
14756.377186293,0.0011684461240757,101.06188194569,1.2566370614359,1010595.8968201,1010639.2144722,-8.3895743101643e-07,1010618.8194569
15006.377186293,0.0011425403494076,101.06420656395,1.2566370614359,1010619.6260961,1010662.0333246,-8.1861968601089e-07,1010642.0656395
15256.377186293,0.001115124112993,101.0664796428,1.2566370614359,1010642.8706016,1010684.3142346,-7.9719974333447e-07,1010664.796428
15506.377186293,0.0010862331428024,101.06869817716,1.2566370614359,1010665.5996207,1010706.0277472,-7.7472591969209e-07,1010686.9817716
15756.377186293,0.0010559067620738,101.07085923307,1.2566370614359,1010687.7831052,1010727.1451577,-7.5122792499668e-07,1010708.5923307
16006.377186293,0.0010241847060028,101.07295995479,1.2566370614359,1010709.3917177,1010747.6385494,-7.2673682309335e-07,1010729.5995479
16256.377186293,0.00099110798310914,101.07499756561,1.2566370614359,1010730.3969033,1010767.4808303,-7.0128499069364e-07,1010749.9756561
16506.377186293,0.00095672119717977,101.07696937045,1.2566370614359,1010750.7708979,1010786.6457694,-6.7490607457421e-07,1010769.6937045
16756.377186293,0.00092106977591725,101.07887276293,1.2566370614359,1010770.4867532,1010805.108031,-6.4763494709652e-07,1010788.7276293
17006.377186293,0.00088420083230577,101.08070522707,1.2566370614359,1010789.5184085,1010822.8432084,-6.195076601063e-07,1010807.0522707
17256.377186293,0.00084616297735757,101.08246434062,1.2566370614359,1010807.840707,1010839.8278562,-5.905613972738e-07,1010824.6434062
17506.377186293,0.00080700650736657,101.08414777802,1.2566370614359,1010825.4294291,1010856.0395208,-5.6083442493779e-07,1010841.4777802
17756.377186293,0.00076678306685196,101.08575331381,1.2566370614359,1010842.2613226,1010871.4567709,-5.3036604151825e-07,1010857.5331381
18006.377186293,0.00072554624776949,101.08727882524,1.2566370614359,1010858.314136,1010886.0592251,-4.991965255647e-07,1010872.7882524
18256.377186293,0.00068334949227211,101.08872229621,1.2566370614359,1010873.5666454,1010899.8275793,-4.6736708250885e-07,1010887.2229621
18506.377186293,0.00064025009993514,101.09008181693,1.2566370614359,1010887.998693,1010912.743632,-4.3491979019189e-07,1010900.8181693
18756.377186293,0.0005963040221086,101.0913555916,1.2566370614359,1010901.5911845,1010924.7903085,-4.0189754323849e-07,1010913.555916
19006.377186293,0.00055157005639594,101.09254193574,1.2566370614359,1010914.3261655,1010935.9516833,-3.68343996351e-07,1010925.4193574
19256.377186293,0.00050610662589358,101.09363928187,1.2566370614359,1010926.186795,1010946.2130013,-3.343035065989e-07,1010936.3928187
19506.377186293,0.00045997410113446,101.0946461787,1.2566370614359,1010937.1574017,1010955.5606973,-2.998210747797e-07,1010946.461787
19756.377186293,0.00041323345186281,101.09556129509,1.2566370614359,1010947.2234766,1010963.9824137,-2.6494228592885e-07,1010955.6129509
20006.377186293,0.00036594598487914,101.09638342117,1.2566370614359,1010956.371712,1010971.4670173,-2.2971324905727e-07,1010963.8342117
20256.377186293,0.00031817525402617,101.09711146905,1.2566370614359,1010964.5900131,1010978.0046135,-1.9418053619629e-07,1010971.1146905
20506.377186293,0.00026998406413253,101.09774447727,1.2566370614359,1010971.8675051,1010983.5865598,-1.5839112083036e-07,1010977.4447727
20756.377186293,0.00022143619374515,101.09828160934,1.2566370614359,1010978.1945772,1010988.2054769,-1.2239231579915e-07,1010982.8160934
21006.377186293,0.000172596170425,101.09872215565,1.2566370614359,1010983.5628686,1010991.8552588,-8.6231710750962e-08,1010987.2215565
21256.377186293,0.00012352687390212,101.09906553494,1.2566370614359,1010987.9652868,1010994.5310805,-4.995710923027e-08,1010990.6553494
21506.377186293,7.4293955258588e-05,101.0993112911,1.2566370614359,1010991.3960238,1010996.2294046,-1.3616465482429e-08,1010993.112911
21756.377186293,2.4963065576452e-05,101.09945909859,1.2566370614359,1010993.8505221,1010996.947986,2.2742178940796e-08,1010994.5909859
22006.377186293,-2.4400368766443e-05,101.09950876249,1.2566370614359,1010995.3255305,1010996.6858747,5.9070758691132e-08,1010995.0876249
22256.377186293,-7.3731895110527e-05,101.09946021807,1.2566370614359,1010995.819104,1010995.4434173,9.532124816516e-08,1010994.6021807
22506.377186293,-0.00012296560021882,101.0993135288,1.2566370614359,1010995.3305992,1010993.2222561,1.3144572499313e-07,1010993.135288
22756.377186293,-0.00017203684417824,101.09906888929,1.2566370614359,1010993.8606548,1010990.0253277,1.6739643339131e-07,1010990.6888929
23006.377186293,-0.000220880949625,101.09872662277,1.2566370614359,1010991.4112211,1010985.8568581,2.0312584729411e-07,1010987.2662277
23256.377186293,-0.00026943267743478,101.09828718113,1.2566370614359,1010987.9855342,1010980.7223581,2.385867331825e-07,1010982.8718113
23506.377186293,-0.00031762824906065,101.09775114604,1.2566370614359,1010983.5881171,1010974.6286153,2.7373221252576e-07,1010977.5114604
23756.377186293,-0.0003654039983078,101.09711922608,1.2566370614359,1010978.2247906,1010967.5836857,3.0851582375381e-07,1010971.1922608
24006.377186293,-0.00041269697054478,101.09639225648,1.2566370614359,1010971.9026442,1010959.5968823,3.4289158367852e-07,1010963.9225648
24256.377186293,-0.00045944421114013,101.09557119773,1.2566370614359,1010964.6300343,1010950.6787636,3.7681404828238e-07,1010955.7119773
24506.377186293,-0.00050558392643419,101.09465713555,1.2566370614359,1010956.4165695,1010940.8411192,4.1023837279461e-07,1010946.5713555
24756.377186293,-0.00055105503433063,101.09365127863,1.2566370614359,1010947.273111,1010930.0969542,4.4312037097494e-07,1010936.5127863
