time,flux,h,injection_area,pp_0,pp_inf,tidal_head,wellPP
0,0,101.05102220199,1.2566370614359,0,0,0,0
1,0,101.05102220199,1.2566370614359,1010508.0871195,1010504.7905019,-1.4544410382007e-10,1010510.2220199
2.1,-0.0013106118008182,101.05102220199,1.2566370614359,1010511.9762019,1010502.2859782,-3.0543261435009e-10,1010510.2220199
3.31,-0.0015134233480886,101.0510095819,1.2566370614359,1010511.9598772,1010499.7549297,-4.814199667457e-10,1010510.095819
4.641,-0.0018017631626495,101.05099355161,1.2566370614359,1010511.8107253,1010497.1074005,-6.7500603694961e-10,1010509.9355161
6.1051,-0.0021302082607577,101.05097255876,1.2566370614359,1010511.6243004,1010494.297092,-8.8795068467744e-10,1010509.7255876
7.71561,-0.0024874951937342,101.05094525714,1.2566370614359,1010511.3859606,1010491.2898136,-1.1221897503008e-09,1010509.4525714
9.487171,-0.0028710468289148,101.05091018831,1.2566370614359,1010511.0824458,1010488.0553489,-1.3798526508756e-09,1010509.1018831
11.4358881,-0.0032805574187615,101.05086566453,1.2566370614359,1010510.6991945,1010484.564375,-1.6632817350412e-09,1010508.6566453
13.57947691,-0.0037167508853599,101.05080970268,1.2566370614359,1010510.2192717,1010480.7869753,-1.9750535724212e-09,1010508.0970268
15.937424601,-0.0041810026057715,101.05073995969,1.2566370614359,1010509.6227367,1010476.6917684,-2.3180023706367e-09,1010507.3995969
18.5311670611,-0.0046751292761399,101.0506536598,1.2566370614359,1010508.8860143,1010472.2453051,-2.6952457322324e-09,1010506.536598
21.38428376721,-0.0052011554065585,101.05054751075,1.2566370614359,1010507.9811862,1010467.4115888,-3.1102129848979e-09,1010505.4751075
24.522712143931,-0.0057609970124348,101.050417609,1.2566370614359,1010506.8751772,1010462.1516501,-3.566676341488e-09,1010504.17609
27.974983358324,-0.0063560773702792,101.05025933649,1.2566370614359,1010505.5288387,1010456.4231404,-4.0687851717294e-09,1010502.5933649
31.772481694157,-0.0069869309765223,101.05006725314,1.2566370614359,1010503.895947,1010450.179923,-4.6211036953111e-09,1010500.6725314
35.949729863572,-0.0076528785503164,101.04983499033,1.2566370614359,1010501.9221552,1010443.3716502,-5.2286524365364e-09,1010498.3499033
40.544702849929,-0.0083518210172185,101.04955514973,1.2566370614359,1010499.5439432,1010435.9433148,-5.8969538140733e-09,1010495.5514973
45.599173134922,-0.0090801811984465,101.04921921123,1.2566370614359,1010496.6876114,1010427.8347717,-6.6320822758114e-09,1010492.1921123
51.159090448415,-0.0098329941045235,101.04881745207,1.2566370614359,1010493.2683531,1010418.9802212,-7.4407194286655e-09,1010488.1745207
57.274999493256,-0.010604093177623,101.04833887736,1.2566370614359,1010489.1894304,1010409.3076494,-8.3302146565827e-09,1010483.3887736
64.002499442582,-0.011386365930067,101.04777116261,1.2566370614359,1010484.3414595,1010398.7382208,-9.3086517672546e-09,1010477.7116261
71.40274938684,-0.012172019956666,101.04710060751,1.2566370614359,1010478.6018146,1010387.1856176,-1.0384922259302e-08,1010471.0060751
79.543024325524,-0.012952840595558,101.0463121021,1.2566370614359,1010471.8341459,1010374.5553191,-1.1568805857179e-08,1010463.121021
88.497326758076,-0.013720411550296,101.04538910631,1.2566370614359,1010463.8880227,1010360.7438183,-1.2871059020821e-08,1010453.8910631
98.347059433884,-0.014466305551377,101.04431364565,1.2566370614359,1010454.5987143,1010345.6377662,-1.4303512201197e-08,1010443.1364565
109.18176537727,-0.015182251835786,101.04306632616,1.2566370614359,1010443.7871335,1010329.1130414,-1.5879176681274e-08,1010430.6632616
121.099941915,-0.015860291642313,101.04162637106,1.2566370614359,1010431.2599736,1010311.0337348,-1.7612361914172e-08,1010416.2637106
134.2099361065,-0.016492941683869,101.03997168118,1.2566370614359,1010416.8100619,1010291.2510459,-1.9518804345923e-08,1010399.7168118
148.63092971715,-0.01707337788064,101.03807891811,1.2566370614359,1010400.2169493,1010269.6020809,-2.1615808788268e-08,1010380.7891811
164.49402268886,-0.017595647743015,101.03592360552,1.2566370614359,1010381.2477252,1010245.908547,-2.3922403485905e-08,1010359.2360552
181.94342495775,-0.018054910205894,101.03348023821,1.2566370614359,1010359.6580111,1010219.9753337,-2.6459510100285e-08,1010334.8023821
201.13776745353,-0.018447691566787,101.03072238265,1.2566370614359,1010335.1930315,1010191.5889754,-2.925012990538e-08,1010307.2238265
222.25154419888,-0.018772145730748,101.0276227452,1.2566370614359,1010307.5885976,1010160.5159853,-3.2319547555297e-08,1010276.227452
245.47669861877,-0.019028277528919,101.02415317666,1.2566370614359,1010276.5717728,1010126.501056,-3.5695553832918e-08,1010241.5317666
271.02436848064,-0.019218097427377,101.02028457764,1.2566370614359,1010241.8609047,1010089.2651174,-3.9408688814333e-08,1010202.8457764
299.12680532871,-0.019345661861552,101.01598666765,1.2566370614359,1010203.1646769,1010048.5032494,-4.3492506873855e-08,1010159.8666765
330.03948586158,-0.01941695691433,101.01122758549,1.2566370614359,1010160.179808,1010003.8824432,-4.7983864892624e-08,1010112.2758549
364.04343444774,-0.019439585490346,101.00597330247,1.2566370614359,1010112.5870809,1009955.0392114,-5.2923234898487e-08,1010059.7330247
401.44777789251,-0.019422251844499,101.00018685545,1.2566370614359,1010060.045516,1009901.5770497,-5.8355042126302e-08,1010001.8685545
442.59255568176,-0.019374057209141,100.99382743928,1.2566370614359,1010002.1847575,1009843.0637567,-6.4328029106316e-08,1009938.2743928
487.85181124994,-0.019303672545497,100.98684943986,1.2566370614359,1009938.5960633,1009779.0286293,-7.0895645810472e-08,1009868.4943986
537.63699237493,-0.019218493056602,100.97920152617,1.2566370614359,1009868.8227035,1009708.9595554,-7.8116465041028e-08,1009792.0152617
587.63699237493,-0.018203553131494,100.97155450522,1.2566370614359,1009792.4240985,1009638.938997,-8.5364318658008e-08,1009715.5450522
637.63699237493,-0.017220375184906,100.96431132794,1.2566370614359,1009716.0319214,1009569.2504501,-9.2607657805562e-08,1009643.1132794
687.63699237493,-0.016796363682924,100.95745935628,1.2566370614359,1009643.633746,1009499.8784126,-9.9846099421614e-08,1009574.5935628
737.63699237493,-0.016865824962039,100.95077609841,1.2566370614359,1009575.1083962,1009430.8100452,-1.0707926070309e-07,1009507.7609841
787.63699237493,-0.017099326761067,100.94406520196,1.2566370614359,1009508.2571339,1009362.034625,-1.1430675912618e-07,1009440.6520196
837.63699237493,-0.017232727849826,100.93726139535,1.2566370614359,1009441.1374349,1009293.5431559,-1.2152821246652e-07,1009372.6139535
887.63699237493,-0.017194748867383,100.93040450857,1.2566370614359,1009373.1022562,1009225.32808,-1.2874323881948e-07,1009304.0450857
937.63699237493,-0.017054595679058,100.9235627336,1.2566370614359,1009304.5444008,1009157.3830497,-1.3595145662028e-07,1009235.627336
987.63699237493,-0.01691020288392,100.91677672545,1.2566370614359,1009236.1380041,1009089.7027403,-1.4315248466424e-07,1009167.7672545
1037.6369923749,-0.016814297401382,100.91004817106,1.2566370614359,1009168.2854236,1009022.2826959,-1.5034594212689e-07,1009100.4817106
1087.6369923749,-0.016764524818111,100.90335777738,1.2566370614359,1009101.0037139,1008955.1192046,-1.5753144858414e-07,1009033.5777738
1137.6369923749,-0.016731975513465,100.89668718816,1.2566370614359,1009034.1022418,1008888.2092003,-1.6470862403237e-07,1008966.8718816
1187.6369923749,-0.016691791658344,100.89002955029,1.2566370614359,1008967.3994209,1008821.5501845,-1.7187708890856e-07,1008900.2955029
1237.6369923749,-0.016636208448725,100.88338790153,1.2566370614359,1008900.8273379,1008755.1401641,-1.7903646411035e-07,1008833.8790153
1287.6369923749,-0.016570771659587,100.87676836928,1.2566370614359,1008834.4159301,1008688.9775991,-1.8618637101605e-07,1008767.6836928
1337.6369923749,-0.01650433737098,100.87017487427,1.2566370614359,1008768.2257675,1008623.0613586,-1.9332643150475e-07,1008701.7487427
1387.6369923749,-0.016442004009233,100.8636078134,1.2566370614359,1008702.2956519,1008557.3906837,-2.0045626797622e-07,1008636.078134
1437.6369923749,-0.016383825166303,100.85706555492,1.2566370614359,1008636.6295481,1008491.9651558,-2.0757550337095e-07,1008570.6555492
1487.6369923749,-0.016327228802821,100.85054644575,1.2566370614359,1008571.2113428,1008426.7846697,-2.1468376119006e-07,1008505.4644575
1537.6369923749,-0.016269841742651,100.84404985623,1.2566370614359,1008506.0246938,1008361.8494106,-2.2178066551521e-07,1008440.4985623
1587.6369923749,-0.016210800335133,100.83757610096,1.2566370614359,1008441.0633733,1008297.1598341,-2.2886584102849e-07,1008375.7610096
1637.6369923749,-0.016150498599114,100.83112583821,1.2566370614359,1008376.330496,1008232.7166485,-2.3593891303228e-07,1008311.2583821
1687.6369923749,-0.01608969468662,100.82469956947,1.2566370614359,1008311.8325845,1008168.520799,-2.4299950746902e-07,1008246.9956947
1737.6369923749,-0.016028844485057,100.81829749455,1.2566370614359,1008247.5746172,1008104.5734528,-2.5004725094104e-07,1008182.9749455
1787.6369923749,-0.015967944586412,100.81191963187,1.2566370614359,1008183.5585925,1008040.8759859,-2.570817707303e-07,1008119.1963187
1837.6369923749,-0.015906737479652,100.80556600121,1.2566370614359,1008119.7847152,1007977.4299707,-2.6410269481808e-07,1008055.6600121
1887.6369923749,-0.015844967713532,100.79923672479,1.2566370614359,1008056.2532032,1007914.2371644,-2.7110965190466e-07,1007992.3672479
1937.6369923749,-0.015782514135029,100.79293202652,1.2566370614359,1007992.9652887,1007851.2994977,-2.7810227142896e-07,1007929.3202652
1987.6369923749,-0.015719375920228,100.78665217846,1.2566370614359,1007929.9232104,1007788.6190649,-2.8508018358816e-07,1007866.5217846
2037.6369923749,-0.015655591942958,100.78039745304,1.2566370614359,1007867.1296861,1007726.1981135,-2.9204301935721e-07,1007803.9745304
2087.6369923749,-0.01559117987995,100.77416810721,1.2566370614359,1007804.5874388,1007664.0390346,-2.9899041050839e-07,1007741.6810721
2137.6369923749,-0.015526115725305,100.76796439088,1.2566370614359,1007742.2990396,1007602.1443538,-3.0592198963074e-07,1007679.6439088
2187.6369923749,-0.015460354088771,100.76178656352,1.2566370614359,1007680.2669914,1007540.5167223,-3.1283739014955e-07,1007617.8656352
2237.6369923749,-0.015393849055785,100.75563490265,1.2566370614359,1007618.4938926,1007479.1589082,-3.1973624634568e-07,1007556.3490265
2287.6369923749,-0.015326567782082,100.74950970408,1.2566370614359,1007556.9825209,1007418.0737881,-3.2661819337494e-07,1007495.0970408
2337.6369923749,-0.01525849098055,100.74341127666,1.2566370614359,1007495.7358359,1007357.2643392,-3.3348286728739e-07,1007434.1127666
2387.6369923749,-0.015189604232667,100.73733993694,1.2566370614359,1007434.7569274,1007296.7336315,-3.4032990504657e-07,1007373.3993694
2437.6369923749,-0.015119893606773,100.7312960072,1.2566370614359,1007374.048962,1007236.4848204,-3.4715894454868e-07,1007312.960072
2487.6369923749,-0.015049341388685,100.72527981525,1.2566370614359,1007313.6151637,1007176.5211394,-3.5396962464178e-07,1007252.7981525
2537.6369923749,-0.014977931100093,100.71929169597,1.2566370614359,1007253.4588122,1007116.845893,-3.6076158514486e-07,1007192.9169597
2587.6369923749,-0.014905647236408,100.71333199077,1.2566370614359,1007193.5832573,1007057.4624502,-3.6753446686687e-07,1007133.3199077
2637.6369923749,-0.014832475341656,100.70740104726,1.2566370614359,1007133.9919144,1006998.3742383,-3.7428791162577e-07,1007074.0104726
2687.6369923749,-0.014758404105728,100.70149921877,1.2566370614359,1007074.6882605,1006939.5847362,-3.810215622674e-07,1007014.9921877
2737.6369923749,-0.014683423941241,100.69562686317,1.2566370614359,1007015.6758297,1006881.0974692,-3.8773506268444e-07,1006956.2686317
2787.6369923749,-0.014607526421789,100.6897843421,1.2566370614359,1006956.9582013,1006822.9160027,-3.9442805783519e-07,1006897.843421
2837.6369923749,-0.014530704132131,100.68397202059,1.2566370614359,1006898.5389923,1006765.0439374,-4.0110019376236e-07,1006839.7202059
2887.6369923749,-0.014452951155058,100.6781902666,1.2566370614359,1006840.4218534,1006707.4849037,-4.0775111761183e-07,1006781.902666
2937.6369923749,-0.014374261910414,100.67243945045,1.2566370614359,1006782.6104648,1006650.2425575,-4.1438047765123e-07,1006724.3945045
2987.6369923749,-0.014294631379805,100.66671994467,1.2566370614359,1006725.10853,1006593.3205747,-4.2098792328861e-07,1006667.1994467
3037.6369923749,-0.014214056791879,100.66103212382,1.2566370614359,1006667.9197747,1006536.7226475,-4.2757310509096e-07,1006610.3212382
3087.6369923749,-0.014132535637439,100.65537636351,1.2566370614359,1006611.0479444,1006480.4524801,-4.3413567480268e-07,1006553.7636351
3137.6369923749,-0.014050067541978,100.6497530404,1.2566370614359,1006554.4967955,1006424.5137847,-4.40675285364e-07,1006497.530404
3187.6369923749,-0.013966651719032,100.64416253128,1.2566370614359,1006498.2700946,1006368.9102775,-4.4719159092935e-07,1006441.6253128
3237.6369923749,-0.013882288393303,100.63860521323,1.2566370614359,1006442.3716095,1006313.6456757,-4.5368424688563e-07,1006386.0521323
3287.6369923749,-0.013796979587132,100.63308146327,1.2566370614359,1006386.805111,1006258.7236942,-4.6015290987045e-07,1006330.8146327
3337.6369923749,-0.013710726124432,100.62759165761,1.2566370614359,1006331.5743691,1006204.1480417,-4.6659723779027e-07,1006275.9165761
3387.6369923749,-0.013623530963809,100.62213617212,1.2566370614359,1006276.6831458,1006149.922419,-4.7301688983852e-07,1006221.3617212
3437.6369923749,-0.013535397513277,100.61671538151,1.2566370614359,1006222.1351994,1006096.050515,-4.794115265136e-07,1006167.1538151
3487.6369923749,-0.013446329293203,100.61132965912,1.2566370614359,1006167.9342768,1006042.5360052,-4.8578080963683e-07,1006113.2965912
3537.6369923749,-0.013356332445502,100.60597937689,1.2566370614359,1006114.0841109,1005989.3825487,-4.9212440237036e-07,1006059.7937689
3587.6369923749,-0.013265410790145,100.60066490433,1.2566370614359,1006060.5884209,1005936.5937859,-4.9844196923497e-07,1006006.6490433
3637.6369923749,-0.013173569083372,100.59538660941,1.2566370614359,1006007.4509013,1005884.1733369,-5.047331761278e-07,1005953.8660941
3687.6369923749,-0.013080813467097,100.59014485822,1.2566370614359,1005954.6752315,1005832.1247991,-5.1099769034004e-07,1005901.4485822
3737.6369923749,-0.012987151244208,100.58494001441,1.2566370614359,1005902.2650719,1005780.4517454,-5.1723518057451e-07,1005849.4001441
3787.6369923749,-0.012892589193283,100.57977243872,1.2566370614359,1005850.2240582,1005729.1577228,-5.2344531696319e-07,1005797.7243872
3837.6369923749,-0.012797134841912,100.57464248917,1.2566370614359,1005798.5557974,1005678.2462506,-5.2962777108466e-07,1005746.4248917
3887.6369923749,-0.012700795006123,100.56955052083,1.2566370614359,1005747.2638692,1005627.7208189,-5.3578221598146e-07,1005695.5052083
3937.6369923749,-0.012603576913902,100.56449688602,1.2566370614359,1005696.3518236,1005577.5848877,-5.4190832617741e-07,1005644.9688602
3987.6369923749,-0.012505489740671,100.5594819342,1.2566370614359,1005645.8231831,1005527.8418849,-5.4800577769478e-07,1005594.819342
4037.6369923749,-0.012406541725585,100.55450601117,1.2566370614359,1005595.6814417,1005478.4952059,-5.5407424807147e-07,1005545.0601117
4087.6369923749,-0.012306741482305,100.54956945948,1.2566370614359,1005545.9300568,1005429.548212,-5.6011341637802e-07,1005495.6945948
4137.6369923749,-0.012206097587043,100.54467261821,1.2566370614359,1005496.572453,1005381.0042297,-5.6612296323462e-07,1005446.7261821
4187.6369923749,-0.012104619776981,100.53981582305,1.2566370614359,1005447.6120205,1005332.86655,-5.7210257082796e-07,1005398.1582305
4237.6369923749,-0.012002317751851,100.53499940582,1.2566370614359,1005399.0521155,1005285.1384271,-5.7805192292808e-07,1005349.9940582
4287.6369923749,-0.011899200237667,100.53022369448,1.2566370614359,1005350.8960554,1005237.8230781,-5.8397070490507e-07,1005302.2369448
4337.6369923749,-0.011795276185147,100.5254890135,1.2566370614359,1005303.1471189,1005190.9236821,-5.8985860374571e-07,1005254.890135
4387.6369923749,-0.011690556679699,100.5207956838,1.2566370614359,1005255.8085502,1005144.4433797,-5.9571530807001e-07,1005207.956838
4437.6369923749,-0.011585051383603,100.51614402191,1.2566370614359,1005208.8835576,1005098.3852725,-6.0154050814774e-07,1005161.4402191
4487.6369923749,-0.011478770483453,100.51153434047,1.2566370614359,1005162.3753054,1005052.7524225,-6.073338959147e-07,1005115.3434047
4537.6369923749,-0.011371723416824,100.50696694811,1.2566370614359,1005116.2869195,1005007.5478516,-6.1309516498914e-07,1005069.6694811
4587.6369923749,-0.011263920894617,100.50244214968,1.2566370614359,1005070.6214853,1004962.7745415,-6.1882401068785e-07,1005024.4214968
4637.6369923749,-0.011155372579114,100.49796024577,1.2566370614359,1005025.3820505,1004918.435433,-6.2452013004234e-07,1004979.6024577
4687.6369923749,-0.011046090304737,100.49352153314,1.2566370614359,1004980.5716201,1004874.5334262,-6.3018322181485e-07,1004935.2153314
4737.6369923749,-0.010936083546514,100.48912630383,1.2566370614359,1004936.1931608,1004831.0713795,-6.3581298651427e-07,1004891.2630383
4787.6369923749,-0.010825362865543,100.48477484611,1.2566370614359,1004892.2495924,1004788.0521102,-6.4140912641197e-07,1004847.7484611
4837.6369923749,-0.010713938785472,100.48046744405,1.2566370614359,1004848.7437966,1004745.4783938,-6.4697134555759e-07,1004804.6744405
4887.6369923749,-0.010601821792496,100.47620437753,1.2566370614359,1004805.6786133,1004703.3529638,-6.5249934979462e-07,1004762.0437753
4937.6369923749,-0.010489023009476,100.47198592225,1.2566370614359,1004763.0568404,1004661.678512,-6.5799284677604e-07,1004719.8592225
4987.6369923749,-0.010375552623002,100.46781234951,1.2566370614359,1004720.8812343,1004620.457688,-6.6345154597969e-07,1004678.1234951
5037.6369923749,-0.010261421418876,100.46368392654,1.2566370614359,1004679.154507,1004579.6930993,-6.6887515872372e-07,1004636.8392654
5087.6369923749,-0.010146640220352,100.45960091626,1.2566370614359,1004637.8793297,1004539.3873112,-6.7426339818181e-07,1004596.0091626
5137.6369923749,-0.010031219625979,100.45556357732,1.2566370614359,1004597.0583313,1004499.5428469,-6.7961597939832e-07,1004555.6357732
5187.6369923749,-0.0099151701968544,100.45157216414,1.2566370614359,1004556.694097,1004460.1621874,-6.8493261930343e-07,1004515.7216414
5237.6369923749,-0.0097985018948656,100.44762692691,1.2566370614359,1004516.7891703,1004421.2477714,-6.9021303672802e-07,1004476.2692691
5287.6369923749,-0.0096812262922797,100.4437281119,1.2566370614359,1004477.3460524,1004382.8019955,-6.9545695241864e-07,1004437.281119
5337.6369923749,-0.0095633536880401,100.43987596074,1.2566370614359,1004438.3672049,1004344.8272142,-7.0066408905217e-07,1004398.7596074
5387.6369923749,-0.0094448949053997,100.43607071098,1.2566370614359,1004399.8550435,1004307.3257399,-7.0583417125057e-07,1004360.7071098
5437.6369923749,-0.0093258608799639,100.43231259587,1.2566370614359,1004361.8119427,1004270.299843,-7.1096692559542e-07,1004323.1259587
5487.6369923749,-0.0092062617983238,100.42860184428,1.2566370614359,1004324.2402342,1004233.7517522,-7.1606208064236e-07,1004286.0184428
5537.6369923749,-0.0090861076598171,100.42493868106,1.2566370614359,1004287.142206,1004197.683654,-7.2111936693546e-07,1004249.3868106
5587.6369923749,-0.0089654095124011,100.42132332707,1.2566370614359,1004250.5201056,1004162.0976937,-7.2613851702146e-07,1004213.2332707
5637.6369923749,-0.0088441775801176,100.41775599876,1.2566370614359,1004214.3761408,1004126.9959745,-7.3111926546396e-07,1004177.5599876
5687.6369923749,-0.0087224223491635,100.41423690852,1.2566370614359,1004178.7124753,1004092.3805586,-7.3606134885737e-07,1004142.3690852
5737.6369923749,-0.0086001549798483,100.41076626458,1.2566370614359,1004143.5312322,1004058.2534666,-7.4096450584093e-07,1004107.6626458
5787.6369923749,-0.0084773851344531,100.40734427072,1.2566370614359,1004108.8344929,1004024.616678,-7.4582847711248e-07,1004073.4427072
