time,flux,h,injection_area,pp_0,pp_inf,tidal_head,wellPP
0,0,101.05102220199,1.2566370614359,0,0,0,0
1,0,101.05102220199,1.2566370614359,1010508.1259241,1010503.383166,-1.4544410382007e-10,1010510.2220199
2.1,-0.0013436664277972,101.05102220199,1.2566370614359,1010511.9739292,1010499.9941993,-3.0543261435009e-10,1010510.2220199
3.31,-0.0015627821759951,101.05100926361,1.2566370614359,1010511.9562313,1010496.7274846,-4.814199667457e-10,1010510.0926361
4.641,-0.001877739178775,101.05099271051,1.2566370614359,1010511.8017956,1010493.4179263,-6.7500603694961e-10,1010509.9271051
6.1051,-0.0022520170836675,101.05097083244,1.2566370614359,1010511.6065385,1010489.9884009,-8.8795068467744e-10,1010509.7083244
7.71561,-0.0026820105489618,101.05094196967,1.2566370614359,1010511.3536219,1010486.3884416,-1.1221897503008e-09,1010509.4196967
9.487171,-0.0031711810682192,101.05090415855,1.2566370614359,1010511.026167,1010482.5780076,-1.3798526508756e-09,1010509.0415855
11.4358881,-0.0037217213800901,101.05085498033,1.2566370614359,1010510.6043589,1010478.5213347,-1.6632817350412e-09,1010508.5498033
13.57947691,-0.0043322559202598,101.05079149282,1.2566370614359,1010510.0641148,1010474.1840515,-1.9750535724212e-09,1010507.9149282
15.937424601,-0.0049975831980629,101.05071020019,1.2566370614359,1010509.3764221,1010469.5315926,-2.3180023706367e-09,1010507.1020019
18.5311670611,-0.0057095301593675,101.05060704529,1.2566370614359,1010508.5069687,1010464.5281992,-2.6952457322324e-09,1010506.0704529
21.38428376721,-0.0064582686911316,101.05047741012,1.2566370614359,1010507.4159622,1010459.1362081,-3.1102129848979e-09,1010504.7741012
24.522712143931,-0.0072336077455519,101.05031611127,1.2566370614359,1010506.058031,1010453.3154869,-3.566676341488e-09,1010503.1611127
27.974983358324,-0.0080259603172112,101.05011738156,1.2566370614359,1010504.3821026,1010447.0229447,-4.0687851717294e-09,1010501.1738156
31.772481694157,-0.008826908312029,101.04987483364,1.2566370614359,1010502.3311744,1010440.2120761,-4.6211036953111e-09,1010498.7483364
35.949729863572,-0.0096293962422964,101.04958140545,1.2566370614359,1010499.8419343,1010432.8325149,-5.2286524365364e-09,1010495.8140545
40.544702849929,-0.010427652430398,101.04922929009,1.2566370614359,1010496.8442205,1010424.8295811,-5.8969538140733e-09,1010492.2929009
45.599173134922,-0.011216950447833,101.04880985464,1.2566370614359,1010493.2603407,1010416.1438112,-6.6320822758114e-09,1010488.0985464
51.159090448415,-0.011993289773075,101.04831355258,1.2566370614359,1010489.0042838,1010406.7104621,-7.4407194286655e-09,1010483.1355258
57.274999493256,-0.012753080793709,101.04772983565,1.2566370614359,1010483.9808704,1010396.4589843,-8.3302146565827e-09,1010477.2983565
64.002499442582,-0.013492855200145,101.04704706985,1.2566370614359,1010478.0848938,1010385.3124553,-9.3086517672546e-09,1010470.4706985
71.40274938684,-0.014209040232785,101.04625246137,1.2566370614359,1010471.2002982,1010373.186971,-1.0384922259302e-08,1010462.5246137
79.543024325524,-0.014897803373953,101.04533199747,1.2566370614359,1010463.19945,1010359.9909886,-1.1568805857179e-08,1010453.3199747
88.497326758076,-0.01555496534992,101.04427040717,1.2566370614359,1010453.9425539,1010345.6246166,-1.2871059020821e-08,1010442.7040717
98.347059433884,-0.016175994026431,101.04305114686,1.2566370614359,1010443.2772604,1010329.978846,-1.4303512201197e-08,1010430.5114686
109.18176537727,-0.016756064704342,101.04165641394,1.2566370614359,1010431.0385165,1010312.9347195,-1.5879176681274e-08,1010416.5641394
121.099941915,-0.017290190672768,101.04006719114,1.2566370614359,1010417.0486924,1010294.3624323,-1.7612361914172e-08,1010400.6719114
134.2099361065,-0.017773421622909,101.03826332118,1.2566370614359,1010401.1180088,1010274.1203603,-1.9518804345923e-08,1010382.6332118
148.63092971715,-0.018201093856191,101.03622360767,1.2566370614359,1010383.0452633,1010252.0540097,-2.1615808788268e-08,1010362.2360767
164.49402268886,-0.018569127942458,101.03392593423,1.2566370614359,1010362.6188161,1010227.9948841,-2.3922403485905e-08,1010339.2593423
181.94342495775,-0.018874357686938,101.03134738749,1.2566370614359,1010339.617755,1010201.7592632,-2.6459510100285e-08,1010313.4738749
201.13776745353,-0.019114859396832,101.02846436278,1.2566370614359,1010313.813099,1010173.1468894,-2.925012990538e-08,1010284.6436278
222.25154419888,-0.019290260212941,101.02525262576,1.2566370614359,1010284.9688311,1010141.9395572,-3.2319547555297e-08,1010252.5262576
245.47669861877,-0.019401978655537,101.02168729652,1.2566370614359,1010252.842495,1010107.8996038,-3.5695553832918e-08,1010216.8729652
271.02436848064,-0.019453357836509,101.01774272111,1.2566370614359,1010217.185026,1010070.7683012,-3.9408688814333e-08,1010177.4272111
299.12680532871,-0.019449639393675,101.0133921978,1.2566370614359,1010177.739468,1010030.264159,-4.3492506873855e-08,1010133.921978
330.03948586158,-0.019397749647272,101.00860753689,1.2566370614359,1010134.238253,1009986.0811607,-4.7983864892624e-08,1010086.0753689
364.04343444774,-0.019305854423444,101.00335845141,1.2566370614359,1010086.3988349,1009937.8869847,-5.2923234898487e-08,1010033.5845141
401.44777789251,-0.019182701270105,100.9976118112,1.2566370614359,1010033.9176485,1009885.3213027,-5.8355042126302e-08,1009976.118112
442.59255568176,-0.01903676172349,100.99133083092,1.2566370614359,1009976.4627182,1009827.9943078,-6.4328029106316e-08,1009913.3083092
487.85181124994,-0.01887527698934,100.98447431601,1.2566370614359,1009913.6656148,1009765.4857043,-7.0895645810472e-08,1009844.7431601
537.63699237493,-0.018703320888878,100.97699612817,1.2566370614359,1009845.1139881,1009697.3444763,-7.8116465041028e-08,1009769.9612817
587.63699237493,-0.017584509454585,100.96955409376,1.2566370614359,1009770.4207955,1009629.4977076,-8.5364318658008e-08,1009695.5409376
637.63699237493,-0.016512836957789,100.9625572334,1.2566370614359,1009696.085431,1009562.2127461,-9.2607657805562e-08,1009625.572334
687.63699237493,-0.016056019164439,100.95598679055,1.2566370614359,1009626.153008,1009495.470651,-9.9846099421614e-08,1009559.8679055
737.63699237493,-0.016136276245306,100.94959811509,1.2566370614359,1009560.4421105,1009429.2587096,-1.0707926070309e-07,1009495.9811509
787.63699237493,-0.016373336685018,100.94317750542,1.2566370614359,1009496.5364196,1009363.569184,-1.1430675912618e-07,1009431.7750542
837.63699237493,-0.016463850015362,100.9366625696,1.2566370614359,1009432.3230102,1009298.3983134,-1.2152821246652e-07,1009366.625696
887.63699237493,-0.016337902777437,100.93011161862,1.2566370614359,1009367.1835251,1009233.7455015,-1.2874323881948e-07,1009301.1161862
937.63699237493,-0.016095323864311,100.92361078192,1.2566370614359,1009301.6931546,1009169.6126348,-1.3595145662028e-07,1009236.1078192
987.63699237493,-0.015863564047275,100.91720646716,1.2566370614359,1009236.7030748,1009106.0035048,-1.4315248466424e-07,1009172.0646716
1037.6369923749,-0.015703600036365,100.91089436942,1.2566370614359,1009172.6725171,1009042.923322,-1.5034594212689e-07,1009108.9436942
1087.6369923749,-0.015601562338296,100.90464592121,1.2566370614359,1009109.5595305,1008980.3783133,-1.5753144858414e-07,1009046.4592121
1137.6369923749,-0.015511906703948,100.89843807371,1.2566370614359,1009047.0820553,1008918.3753958,-1.6470862403237e-07,1008984.3807371
1187.6369923749,-0.015400900124311,100.8922659001,1.2566370614359,1008985.0122821,1008856.9219144,-1.7187708890856e-07,1008922.659001
1237.6369923749,-0.015262604902805,100.88613789592,1.2566370614359,1008923.3014156,1008796.0254315,-1.7903646411035e-07,1008861.3789592
1287.6369923749,-0.015109847455739,100.88006491927,1.2566370614359,1008862.0333933,1008735.6935583,-1.8618637101605e-07,1008800.6491927
1337.6369923749,-0.014957435041998,100.87405272468,1.2566370614359,1008801.3156209,1008675.9338198,-1.9332643150475e-07,1008740.5272468
1387.6369923749,-0.014811855134481,100.86810117484,1.2566370614359,1008741.205128,1008616.7535503,-2.0045626797622e-07,1008681.0117484
1437.6369923749,-0.014671029144281,100.86220755112,1.2566370614359,1008681.7007062,1008558.1598125,-2.0757550337095e-07,1008622.0755112
1487.6369923749,-0.014529636787101,100.85636996194,1.2566370614359,1008622.7755915,1008500.159339,-2.1468376119006e-07,1008563.6996194
1537.6369923749,-0.014384057328993,100.85058863264,1.2566370614359,1008564.4111557,1008442.7584895,-2.2178066551521e-07,1008505.8863264
1587.6369923749,-0.014233958095363,100.84486522928,1.2566370614359,1008506.6096789,1008385.9632232,-2.2886584102849e-07,1008448.6522928
1637.6369923749,-0.014081063279119,100.83920155027,1.2566370614359,1008449.3876847,1008329.7790812,-2.3593891303228e-07,1008392.0155027
1687.6369923749,-0.013927181224898,100.83359870796,1.2566370614359,1008392.7630136,1008274.2111781,-2.4299950746902e-07,1008335.9870796
1737.6369923749,-0.013773087162248,100.82805709519,1.2566370614359,1008336.7467278,1008219.2641999,-2.5004725094104e-07,1008280.5709519
1787.6369923749,-0.01361857758405,100.8225767963,1.2566370614359,1008281.3427714,1008164.9424077,-2.570817707303e-07,1008225.767963
1837.6369923749,-0.013463120315817,100.81715797663,1.2566370614359,1008226.5520304,1008111.2496465,-2.6410269481808e-07,1008171.5797663
1887.6369923749,-0.013306412905673,100.81180101327,1.2566370614359,1008172.3761821,1008058.1893556,-2.7110965190466e-07,1008118.0101327
1937.6369923749,-0.013148533850291,100.80650640365,1.2566370614359,1008118.818991,1008005.764583,-2.7810227142896e-07,1008065.0640365
1987.6369923749,-0.012989781893927,100.80127461396,1.2566370614359,1008065.885408,1007953.9780005,-2.8508018358816e-07,1008012.7461396
2037.6369923749,-0.012830443272304,100.79610599153,1.2566370614359,1008013.5800721,1007902.8319202,-2.9204301935721e-07,1007961.0599153
2087.6369923749,-0.012670673518189,100.79100076979,1.2566370614359,1007961.9064442,1007852.328312,-2.9899041050839e-07,1007910.0076979
2137.6369923749,-0.01251051345285,100.78595912029,1.2566370614359,1007910.8668555,1007802.4688206,-3.0592198963074e-07,1007859.5912029
2187.6369923749,-0.012349967532919,100.78098119834,1.2566370614359,1007860.4630211,1007753.2547834,-3.1283739014955e-07,1007809.8119834
2237.6369923749,-0.012189065494256,100.77606715746,1.2566370614359,1007810.6964917,1007704.6872479,-3.1973624634568e-07,1007760.6715746
2287.6369923749,-0.012027878905152,100.77121713936,1.2566370614359,1007761.5687968,1007656.7669888,-3.2661819337494e-07,1007712.1713936
2337.6369923749,-0.011866499594731,100.76643125726,1.2566370614359,1007713.0813462,1007609.4945244,-3.3348286728739e-07,1007664.3125726
2387.6369923749,-0.011705011302765,100.76170958783,1.2566370614359,1007665.2352655,1007562.8701331,-3.4032990504657e-07,1007617.0958783
2437.6369923749,-0.011543478594266,100.75705217445,1.2566370614359,1007618.0313164,1007516.8938685,-3.4715894454868e-07,1007570.5217445
2487.6369923749,-0.011381949705738,100.75245903479,1.2566370614359,1007571.4699286,1007471.5655744,-3.5396962464178e-07,1007524.5903479
2537.6369923749,-0.011220467555688,100.74793016733,1.2566370614359,1007525.5512755,1007426.8848986,-3.6076158514486e-07,1007479.3016733
2587.6369923749,-0.011059073714394,100.74346555347,1.2566370614359,1007480.2753386,1007382.8513067,-3.6753446686687e-07,1007434.6555347
2637.6369923749,-0.010897812935448,100.73906515807,1.2566370614359,1007435.6419284,1007339.4640946,-3.7428791162577e-07,1007390.6515807
2687.6369923749,-0.01073673004734,100.73472892819,1.2566370614359,1007391.6506899,1007296.7224006,-3.810215622674e-07,1007347.2892819
2737.6369923749,-0.010575864672915,100.73045679305,1.2566370614359,1007348.3010905,1007254.6252167,-3.8773506268444e-07,1007304.5679305
2787.6369923749,-0.010415253101902,100.72624866609,1.2566370614359,1007305.5924195,1007213.1713992,-3.9442805783519e-07,1007262.4866609
2837.6369923749,-0.010254926905245,100.72210444633,1.2566370614359,1007263.5238089,1007172.3596785,-4.0110019376236e-07,1007221.0444633
2887.6369923749,-0.010094915856252,100.71802402022,1.2566370614359,1007222.0942465,1007132.1886693,-4.0775111761183e-07,1007180.2402022
2937.6369923749,-0.0099352478182468,100.71400726235,1.2566370614359,1007181.3025946,1007092.6568784,-4.1438047765123e-07,1007140.0726235
2987.6369923749,-0.0097759488194669,100.71005403626,1.2566370614359,1007141.147597,1007053.7627137,-4.2098792328861e-07,1007100.5403626
3037.6369923749,-0.0096170429781654,100.70616419509,1.2566370614359,1007101.627887,1007015.5044916,-4.2757310509096e-07,1007061.6419509
3087.6369923749,-0.0094585524651582,100.70233758242,1.2566370614359,1007062.7419946,1006977.8804442,-4.3413567480268e-07,1007023.3758242
3137.6369923749,-0.009300498252839,100.69857403297,1.2566370614359,1007024.4883535,1006940.888726,-4.40675285364e-07,1006985.7403297
3187.6369923749,-0.0091428987669535,100.69487337316,1.2566370614359,1006986.8653099,1006904.5274204,-4.4719159092935e-07,1006948.7337316
3237.6369923749,-0.0089857709352195,100.69123542203,1.2566370614359,1006949.8711262,1006868.7945453,-4.5368424688563e-07,1006912.3542203
3287.6369923749,-0.0088291312733968,100.68765999193,1.2566370614359,1006913.5039919,1006833.6880584,-4.6015290987045e-07,1006876.5999193
3337.6369923749,-0.0086729939378512,100.6841468886,1.2566370614359,1006877.7620291,1006799.2058629,-4.6659723779027e-07,1006841.468886
3387.6369923749,-0.0085173724108357,100.68069591218,1.2566370614359,1006842.6432942,1006765.3458113,-4.7301688983852e-07,1006806.9591218
3437.6369923749,-0.0083622798000962,100.67730685743,1.2566370614359,1006808.1457876,1006732.1057105,-4.794115265136e-07,1006773.0685743
3487.6369923749,-0.0082077263671254,100.67397951388,1.2566370614359,1006774.2674559,1006699.4833255,-4.8578080963683e-07,1006739.7951388
3537.6369923749,-0.0080537225232185,100.67071366701,1.2566370614359,1006741.0061938,1006667.4763831,-4.9212440237036e-07,1006707.1366701
3587.6369923749,-0.0079002779306571,100.66750909812,1.2566370614359,1006708.3598551,1006636.0825757,-4.9844196923497e-07,1006675.0909812
3637.6369923749,-0.0077474010158491,100.6643655847,1.2566370614359,1006676.3262524,1006605.2995642,-5.047331761278e-07,1006643.655847
3687.6369923749,-0.0075950993063858,100.66128290087,1.2566370614359,1006644.9031598,1006575.1249812,-5.1099769034004e-07,1006612.8290087
3737.6369923749,-0.0074433797306474,100.65826081774,1.2566370614359,1006614.0883179,1006545.5564336,-5.1723518057451e-07,1006582.6081774
3787.6369923749,-0.0072922490672109,100.6552991037,1.2566370614359,1006583.8794375,1006516.5915054,-5.2344531696319e-07,1006552.991037
3837.6369923749,-0.0071417135328931,100.65239752441,1.2566370614359,1006554.2742018,1006488.2277598,-5.2962777108466e-07,1006523.9752441
3887.6369923749,-0.006991777284722,100.64955584308,1.2566370614359,1006525.2702672,1006460.4627415,-5.3578221598146e-07,1006495.5584308
3937.6369923749,-0.0068424453785424,100.64677382124,1.2566370614359,1006496.8652651,1006433.2939786,-5.4190832617741e-07,1006467.7382124
3987.6369923749,-0.0066937221960866,100.64405121843,1.2566370614359,1006469.0568108,1006406.7189848,-5.4800577769478e-07,1006440.5121843
4037.6369923749,-0.0065456114824249,100.64138779244,1.2566370614359,1006441.8424993,1006380.7352607,-5.5407424807147e-07,1006413.8779244
4087.6369923749,-0.0063981161961627,100.63878329957,1.2566370614359,1006415.2199082,1006355.3402955,-5.6011341637802e-07,1006387.8329957
4137.6369923749,-0.006251239258455,100.63623749494,1.2566370614359,1006389.1866002,1006330.5315686,-5.6612296323462e-07,1006362.3749494
4187.6369923749,-0.0061049839275128,100.63375013251,1.2566370614359,1006363.7401264,1006306.3065507,-5.7210257082796e-07,1006337.5013251
4237.6369923749,-0.0059593515890122,100.63132096494,1.2566370614359,1006338.8780261,1006282.6627052,-5.7805192292808e-07,1006313.2096494
4287.6369923749,-0.0058143446023475,100.62894974435,1.2566370614359,1006314.597826,1006259.5974893,-5.8397070490507e-07,1006289.4974435
4337.6369923749,-0.0056699652145607,100.62663622191,1.2566370614359,1006290.8970467,1006237.1083548,-5.8985860374571e-07,1006266.3622191
4387.6369923749,-0.0055262143244689,100.62438014789,1.2566370614359,1006267.7732002,1006215.1927494,-5.9571530807001e-07,1006243.8014789
4437.6369923749,-0.0053830932428465,100.62218127223,1.2566370614359,1006245.2237889,1006193.848117,-6.0154050814774e-07,1006221.8127223
4487.6369923749,-0.0052406026063556,100.62003934431,1.2566370614359,1006223.2463121,1006173.0718992,-6.073338959147e-07,1006200.3934431
4537.6369923749,-0.0050987442126298,100.61795411329,1.2566370614359,1006201.8382637,1006152.8615354,-6.1309516498914e-07,1006179.5411329
4587.6369923749,-0.0049575176497114,100.61592532759,1.2566370614359,1006180.997135,1006133.2144639,-6.1882401068785e-07,1006159.2532759
4637.6369923749,-0.0048169240411216,100.61395273582,1.2566370614359,1006160.7204104,1006114.1281218,-6.2452013004234e-07,1006139.5273582
4687.6369923749,-0.0046769636864659,100.61203608611,1.2566370614359,1006141.0055757,1006095.5999464,-6.3018322181485e-07,1006120.3608611
4737.6369923749,-0.0045376368104485,100.6101751265,1.2566370614359,1006121.8501125,1006077.6273751,-6.3581298651427e-07,1006101.751265
4787.6369923749,-0.0043989436377737,100.60836960493,1.2566370614359,1006103.2515009,1006060.2078458,-6.4140912641197e-07,1006083.6960493
4837.6369923749,-0.004260883606681,100.60661926925,1.2566370614359,1006085.2072204,1006043.3387976,-6.4697134555759e-07,1006066.1926925
4887.6369923749,-0.0041234579530435,100.60492386753,1.2566370614359,1006067.7147495,1006027.0176708,-6.5249934979462e-07,1006049.2386753
4937.6369923749,-0.0039866651039317,100.60328314735,1.2566370614359,1006050.7715689,1006011.2419077,-6.5799284677604e-07,1006032.8314735
4987.6369923749,-0.003850505508754,100.60169685692,1.2566370614359,1006034.3751544,1005996.008952,-6.6345154597969e-07,1006016.9685692
5037.6369923749,-0.0037149788304541,100.60016474427,1.2566370614359,1006018.5229882,1005981.3162501,-6.6887515872372e-07,1006001.6474427
5087.6369923749,-0.0035800843949195,100.59868655757,1.2566370614359,1006003.2125506,1005967.1612503,-6.7426339818181e-07,1005986.8655757
5137.6369923749,-0.0034458222021499,100.59726204523,1.2566370614359,1005988.4413232,1005953.5414036,-6.7961597939832e-07,1005972.6204523
5187.6369923749,-0.003312191315878,100.5958909557,1.2566370614359,1005974.2067903,1005940.4541638,-6.8493261930343e-07,1005958.909557
5237.6369923749,-0.0031791922229628,100.59457303778,1.2566370614359,1005960.5064363,1005927.8969871,-6.9021303672802e-07,1005945.7303778
5287.6369923749,-0.003046823575179,100.59330804008,1.2566370614359,1005947.3377493,1005915.867333,-6.9545695241864e-07,1005933.0804008
5337.6369923749,-0.0029150847733154,100.59209571175,1.2566370614359,1005934.6982155,1005904.3626636,-7.0066408905217e-07,1005920.9571175
5387.6369923749,-0.002783975817372,100.59093580216,1.2566370614359,1005922.5853262,1005893.3804443,-7.0583417125057e-07,1005909.3580216
5437.6369923749,-0.0026534953591234,100.58982806071,1.2566370614359,1005910.9965755,1005882.9181434,-7.1096692559542e-07,1005898.2806071
5487.6369923749,-0.0025236436607247,100.58877223731,1.2566370614359,1005899.9294571,1005872.9732323,-7.1606208064236e-07,1005887.7223731
5537.6369923749,-0.0023944198982603,100.58776808179,1.2566370614359,1005889.3814704,1005863.5431854,-7.2111936693546e-07,1005877.6808179
5587.6369923749,-0.0022658230231106,100.58681534428,1.2566370614359,1005879.3501136,1005854.6254805,-7.2613851702146e-07,1005868.1534428
5637.6369923749,-0.00213785221136,100.58591377536,1.2566370614359,1005869.8328881,1005846.217598,-7.3111926546396e-07,1005859.1377536
5687.6369923749,-0.0020105077626143,100.5850631259,1.2566370614359,1005860.8272997,1005838.3170219,-7.3606134885737e-07,1005850.631259
5737.6369923749,-0.0018837884410002,100.58426314669,1.2566370614359,1005852.3308572,1005830.9212387,-7.4096450584093e-07,1005842.6314669
5787.6369923749,-0.0017576946210248,100.58351358898,1.2566370614359,1005844.3410685,1005824.0277383,-7.4582847711248e-07,1005835.1358898
