time,flux,h,injection_area,pp_0,pp_inf,tidal_head,wellPP
0,0,101.05102220199,1.2566370614359,0,0,0,0
1,0,101.05102220199,1.2566370614359,1010508.1062054,1010500.6672501,-1.4544410382007e-10,1010510.2220199
2.1,-0.0015073055510772,101.05102220199,1.2566370614359,1010511.961795,1010495.6570226,-3.0543261435009e-10,1010510.2220199
3.31,-0.0019490850896083,101.05100768791,1.2566370614359,1010511.9265421,1010491.0884675,-4.814199667457e-10,1010510.0768791
4.641,-0.0026059325920233,101.05098704305,1.2566370614359,1010511.729517,1010486.6338343,-6.7500603694961e-10,1010509.8704305
6.1051,-0.0034057096531664,101.0509566806,1.2566370614359,1010511.4598876,1010482.1504411,-8.8795068467744e-10,1010509.566806
7.71561,-0.0042918343280765,101.05091303163,1.2566370614359,1010511.0862052,1010477.5542006,-1.1221897503008e-09,1010509.1303163
9.487171,-0.0052185900195001,101.05085252513,1.2566370614359,1010510.5763909,1010472.7853966,-1.3798526508756e-09,1010508.5252513
11.4358881,-0.0061528237174618,101.050771596,1.2566370614359,1010509.8973669,1010467.795769,-1.6632817350412e-09,1010507.71596
13.57947691,-0.0070738096412554,101.05066663719,1.2566370614359,1010509.0151349,1010462.5425923,-1.9750535724212e-09,1010506.6663719
15.937424601,-0.007970652108104,101.05053390065,1.2566370614359,1010507.8944981,1010456.985559,-2.3180023706367e-09,1010505.3390065
18.5311670611,-0.0088391116235459,101.05036937877,1.2566370614359,1010506.4983196,1010451.0849439,-2.6952457322324e-09,1010503.6937877
21.38428376721,-0.0096788832265079,101.05016868629,1.2566370614359,1010504.7865526,1010444.8004119,-3.1102129848979e-09,1010501.6868629
24.522712143931,-0.010491616245943,101.0499269508,1.2566370614359,1010502.715217,1010438.0901678,-3.566676341488e-09,1010499.269508
27.974983358324,-0.01127959289023,101.04963871346,1.2566370614359,1010500.2354098,1010430.9102963,-4.0687851717294e-09,1010496.3871346
31.772481694157,-0.012044928487418,101.04929783939,1.2566370614359,1010497.2923759,1010423.2142088,-4.6211036953111e-09,1010492.9783939
35.949729863572,-0.012789096685211,101.04889743628,1.2566370614359,1010493.8246499,1010414.952148,-5.2286524365364e-09,1010488.9743628
40.544702849929,-0.013512691451758,101.04842978107,1.2566370614359,1010489.7632617,1010406.0707206,-5.8969538140733e-09,1010484.2978107
45.599173134922,-0.014215318243903,101.0478862549,1.2566370614359,1010485.0310118,1010396.5124398,-6.6320822758114e-09,1010478.862549
51.159090448415,-0.014895568990121,101.0472572879,1.2566370614359,1010479.5418229,1010386.2152626,-7.4407194286655e-09,1010472.572879
57.274999493256,-0.015551059279066,101.04653231619,1.2566370614359,1010473.2001846,1010375.1121147,-8.3302146565827e-09,1010465.3231619
64.002499442582,-0.016178499328647,101.04569975411,1.2566370614359,1010465.9007185,1010363.1303945,-9.3086517672546e-09,1010456.9975411
71.40274938684,-0.016773801918962,101.04474698522,1.2566370614359,1010457.5278915,1010350.1914507,-1.0384922259302e-08,1010447.4698522
79.543024325524,-0.017332217289723,101.04366037565,1.2566370614359,1010447.955915,1010336.2100299,-1.1568805857179e-08,1010436.6037565
88.497326758076,-0.017848509083659,101.04242531345,1.2566370614359,1010437.0488648,1010321.0936922,-1.2871059020821e-08,1010424.2531345
98.347059433884,-0.018317158153245,101.04102627602,1.2566370614359,1010424.6610586,1010304.7421965,-1.4303512201197e-08,1010410.2627602
108.34705943388,-0.018510607062259,101.0395685999,1.2566370614359,1010410.655257,1010288.3916817,-1.5757788812985e-08,1010395.685999
118.34705943388,-0.018595529339727,101.03809552915,1.2566370614359,1010396.0716808,1010272.2639503,-1.7212032090772e-08,1010380.9552915
128.34705943388,-0.018645613849902,101.0366157003,1.2566370614359,1010381.3369346,1010256.3364999,-1.8666238958255e-08,1010366.157003
138.34705943388,-0.018671638680354,101.03513188573,1.2566370614359,1010366.5365214,1010240.5907775,-2.0120406339206e-08,1010351.3188573
148.34705943388,-0.018677034727421,101.03364600011,1.2566370614359,1010351.6978899,1010225.0113198,-2.1574531157482e-08,1010336.4600011
158.34705943388,-0.018664915455281,101.03215968508,1.2566370614359,1010336.8399388,1010209.5851249,-2.302861033703e-08,1010321.5968508
168.34705943388,-0.018638278268387,101.03067433449,1.2566370614359,1010321.9788464,1010194.3011844,-2.4482640801893e-08,1010306.7433449
178.34705943388,-0.018599783252709,101.02919110369,1.2566370614359,1010307.1283401,1010179.1501265,-2.5936619476217e-08,1010291.9110369
188.34705943388,-0.018551680596277,101.02771093631,1.2566370614359,1010292.2997948,1010164.1239395,-2.7390543284259e-08,1010277.1093631
198.34705943388,-0.018495835568795,101.02623459694,1.2566370614359,1010277.5024989,1010149.2157531,-2.884440915039e-08,1010262.3459694
208.34705943388,-0.018433776945405,101.0247627017,1.2566370614359,1010262.7439767,1010134.4196629,-3.0298213999105e-08,1010247.627017
218.34705943388,-0.018366745917298,101.02329574507,1.2566370614359,1010248.0302911,1010119.7305873,-3.1751954755027e-08,1010232.9574507
228.34705943388,-0.018295748298001,101.02183412277,1.2566370614359,1010233.3663072,1010105.1441497,-3.3205628342915e-08,1010218.3412277
238.34705943388,-0.018221593509554,101.02037815044,1.2566370614359,1010218.7559177,1010090.6565788,-3.4659231687671e-08,1010203.7815044
248.34705943388,-0.018144929374215,101.01892807933,1.2566370614359,1010204.2022277,1010076.2646261,-3.6112761714345e-08,1010189.2807933
258.34705943388,-0.018066273048739,101.01748410914,1.2566370614359,1010189.7077086,1010061.9654944,-3.7566215348142e-08,1010174.8410914
268.34705943388,-0.017986034505969,101.01604639841,1.2566370614359,1010175.2743249,1010047.7567774,-3.9019589514427e-08,1010160.4639841
278.34705943388,-0.017904538143895,101.01461507305,1.2566370614359,1010160.9036362,1010033.6364065,-4.0472881138736e-08,1010146.1507305
288.34705943388,-0.017822037054364,101.01319023315,1.2566370614359,1010146.5968813,1010019.6026063,-4.1926087146778e-08,1010131.9023315
298.34705943388,-0.017738729875907,101.01177195868,1.2566370614359,1010132.3550456,1010005.6538545,-4.3379204464444e-08,1010117.7195868
308.34705943388,-0.017654768021713,101.01036031377,1.2566370614359,1010118.1789166,1009991.7888481,-4.4832230017811e-08,1010103.6031377
318.34705943388,-0.017570268824835,101.00895535054,1.2566370614359,1010104.0691263,1009978.0064729,-4.6285160733151e-08,1010089.5535054
328.34705943388,-0.017485320893635,101.00755711173,1.2566370614359,1010090.0261887,1009964.3057778,-4.7737993536937e-08,1010075.5711173
338.34705943388,-0.017399991414675,101.00616563307,1.2566370614359,1010076.0505262,1009950.6859516,-4.919072535585e-08,1010061.6563307
348.34705943388,-0.017314329223671,101.00478094491,1.2566370614359,1010062.1424918,1009937.1463032,-5.0643353116782e-08,1010047.8094491
358.34705943388,-0.017228371359369,101.00340307373,1.2566370614359,1010048.3023862,1009923.686244,-5.2095873746847e-08,1010034.0307373
368.34705943388,-0.017142143700203,101.00203204306,1.2566370614359,1010034.5304722,1009910.3052728,-5.3548284173385e-08,1010020.3204306
378.34705943388,-0.017055666469553,101.00066787438,1.2566370614359,1010020.8269834,1009897.0029619,-5.500058132397e-08,1010006.6787438
388.34705943388,-0.016968953112223,100.99931058753,1.2566370614359,1010007.1921335,1009883.7789462,-5.6452762126415e-08,1009993.1058753
398.34705943388,-0.01688201426421,100.99796020133,1.2566370614359,1009993.6261201,1009870.6329122,-5.7904823508778e-08,1009979.6020132
408.34705943388,-0.016794857790163,100.99661673369,1.2566370614359,1009980.1291306,1009857.5645899,-5.9356762399372e-08,1009966.1673369
418.34705943388,-0.01670749050611,100.99528020196,1.2566370614359,1009966.7013439,1009844.5737444,-6.0808575726767e-08,1009952.8020196
428.34705943388,-0.016619918965924,100.99395062289,1.2566370614359,1009953.3429326,1009831.6601697,-6.22602604198e-08,1009939.5062289
438.34705943388,-0.016532148075647,100.99262801276,1.2566370614359,1009940.0540641,1009818.8236828,-6.3711813407578e-08,1009926.2801276
448.34705943388,-0.016444184688757,100.99131238741,1.2566370614359,1009926.8349003,1009806.0641183,-6.5163231619491e-08,1009913.1238741
458.34705943388,-0.016356035134424,100.99000376218,1.2566370614359,1009913.6855994,1009793.3813246,-6.6614511985209e-08,1009900.0376218
468.34705943388,-0.016267706790435,100.98870215187,1.2566370614359,1009900.6063141,1009780.77516,-6.8065651434696e-08,1009887.0215187
478.34705943388,-0.016179209019466,100.98740757072,1.2566370614359,1009887.5971916,1009768.2454893,-6.9516646898215e-08,1009874.0757072
488.34705943388,-0.016090549723616,100.9861200322,1.2566370614359,1009874.6583737,1009755.7921814,-7.0967495306332e-08,1009861.200322
498.34705943388,-0.01600173931418,100.98483954917,1.2566370614359,1009861.7899943,1009743.4151067,-7.2418193589925e-08,1009848.3954917
508.34705943388,-0.015912789737933,100.98356613366,1.2566370614359,1009848.9921812,1009731.1141354,-7.3868738680189e-08,1009835.6613366
518.34705943388,-0.01582371144362,100.98229979674,1.2566370614359,1009836.2650535,1009718.8891359,-7.5319127508643e-08,1009822.9979674
528.34705943388,-0.015734518025846,100.98104054865,1.2566370614359,1009823.6087211,1009706.7399731,-7.6769357007137e-08,1009810.4054865
538.34705943388,-0.015645222629809,100.97978839857,1.2566370614359,1009811.0232854,1009694.6665076,-7.8219424107858e-08,1009797.8839857
548.34705943388,-0.015555838587958,100.97854335459,1.2566370614359,1009798.5088368,1009682.6685947,-7.9669325743336e-08,1009785.4335459
558.34705943388,-0.015466380206462,100.97730542377,1.2566370614359,1009786.0654554,1009670.7460837,-8.1119058846452e-08,1009773.0542377
568.34705943388,-0.015376863252067,100.97607461204,1.2566370614359,1009773.6932106,1009658.8988173,-8.2568620350442e-08,1009760.7461204
578.34705943388,-0.015287301019772,100.97485092406,1.2566370614359,1009761.3921603,1009647.126631,-8.4018007188907e-08,1009748.5092406
588.34705943388,-0.015197710587097,100.97363436342,1.2566370614359,1009749.1623498,1009635.429353,-8.5467216295817e-08,1009736.3436342
598.34705943388,-0.015108106971776,100.97242493236,1.2566370614359,1009737.0038142,1009623.8068042,-8.6916244605515e-08,1009724.2493236
608.34705943388,-0.015018505453693,100.97122263195,1.2566370614359,1009724.9165743,1009612.2587975,-8.8365089052731e-08,1009712.2263195
618.34705943388,-0.014928921799596,100.97002746201,1.2566370614359,1009712.9006397,1009600.7851381,-8.9813746572582e-08,1009700.2746201
628.34705943388,-0.014839371439174,100.96883942113,1.2566370614359,1009700.9560074,1009589.3856236,-9.1262214100578e-08,1009688.3942113
638.34705943388,-0.014749869128003,100.96765850664,1.2566370614359,1009689.0826619,1009578.0600436,-9.2710488572635e-08,1009676.5850664
648.34705943388,-0.014660432130859,100.96648471473,1.2566370614359,1009677.2805755,1009566.8081804,-9.4158566925076e-08,1009664.8471473
658.34705943388,-0.014571073293331,100.9653180402,1.2566370614359,1009665.5497088,1009555.6298087,-9.5606446094636e-08,1009653.180402
668.34705943388,-0.014481808981377,100.96415847683,1.2566370614359,1009653.8900086,1009544.524696,-9.7054123018476e-08,1009641.5847683
678.34705943388,-0.014392653313912,100.9630060171,1.2566370614359,1009642.3014116,1009533.4926027,-9.8501594634182e-08,1009630.060171
688.34705943388,-0.014303620522202,100.96186065236,1.2566370614359,1009630.7838415,1009522.5332824,-9.9948857879775e-08,1009618.6065236
698.34705943388,-0.014214724350657,100.96072237284,1.2566370614359,1009619.3372106,1009511.6464819,-1.0139590969372e-07,1009607.2237284
708.34705943388,-0.014125978206628,100.95959116765,1.2566370614359,1009607.9614201,1009500.8319417,-1.0284274701491e-07,1009595.9116765
718.34705943388,-0.014037396433733,100.95846702487,1.2566370614359,1009596.6563602,1009490.0893962,-1.0428936678273e-07,1009584.6702487
728.34705943388,-0.013948990454437,100.95734993141,1.2566370614359,1009585.4219106,1009479.418574,-1.0573576593699e-07,1009573.4993141
738.34705943388,-0.013860772702373,100.95623987328,1.2566370614359,1009574.2579395,1009468.8191979,-1.0718194141799e-07,1009562.3987328
748.34705943388,-0.01377275587333,100.9551368355,1.2566370614359,1009563.1643059,1009458.2909854,-1.0862789016648e-07,1009551.368355
758.34705943388,-0.013684951689378,100.95404080209,1.2566370614359,1009552.1408592,1009447.8336492,-1.100736091237e-07,1009540.4080209
768.34705943388,-0.013597370187305,100.95295175612,1.2566370614359,1009541.1874386,1009437.4468967,-1.1151909523139e-07,1009529.5175612
778.34705943388,-0.013510023201533,100.95186967986,1.2566370614359,1009530.3038741,1009427.1304311,-1.1296434543177e-07,1009518.6967986
788.34705943388,-0.013422920244541,100.95079455467,1.2566370614359,1009519.4899876,1009416.8839512,-1.1440935666756e-07,1009507.9455467
798.34705943388,-0.01333607154037,100.94972636111,1.2566370614359,1009508.7455917,1009406.7071519,-1.1585412588198e-07,1009497.2636111
808.34705943388,-0.013249486489147,100.94866507896,1.2566370614359,1009498.0704915,1009396.599724,-1.1729865001877e-07,1009486.6507896
818.34705943388,-0.013163173929238,100.94761068723,1.2566370614359,1009487.4644838,1009386.561355,-1.1874292602219e-07,1009476.1068723
828.34705943388,-0.013077142024896,100.94656316423,1.2566370614359,1009476.9273584,1009376.591729,-1.2018695083701e-07,1009465.6316423
838.34705943388,-0.012991400213698,100.94552248764,1.2566370614359,1009466.4588975,1009366.6905271,-1.2163072140855e-07,1009455.2248764
848.34705943388,-0.01290595523677,100.94448863437,1.2566370614359,1009456.0588773,1009356.8574273,-1.2307423468267e-07,1009444.8863437
858.34705943388,-0.012820814808958,100.9434615808,1.2566370614359,1009445.7270663,1009347.0921053,-1.2451748760574e-07,1009434.615808
868.34705943388,-0.012735985933543,100.94244130268,1.2566370614359,1009435.4632278,1009337.3942341,-1.2596047712473e-07,1009424.4130268
878.34705943388,-0.01265147527675,100.94142777523,1.2566370614359,1009425.2671188,1009327.7634845,-1.2740320018712e-07,1009414.2777523
888.34705943388,-0.012567289729508,100.94042097312,1.2566370614359,1009415.1384908,1009318.1995255,-1.28845653741e-07,1009404.2097312
898.34705943388,-0.012483433860803,100.93942087049,1.2566370614359,1009405.0770904,1009308.7020239,-1.3028783473498e-07,1009394.2087049
908.34705943388,-0.012399914599015,100.93842744108,1.2566370614359,1009395.0826581,1009299.270645,-1.317297401183e-07,1009384.2744108
918.34705943388,-0.012316736662933,100.93744065813,1.2566370614359,1009385.1549313,1009289.9050527,-1.3317136684073e-07,1009374.4065813
928.34705943388,-0.012233905220753,100.93646049446,1.2566370614359,1009375.2936417,1009280.6049094,-1.3461271185267e-07,1009364.6049446
938.34705943388,-0.012151425103617,100.9354869225,1.2566370614359,1009365.4985173,1009271.3698765,-1.360537721051e-07,1009354.869225
948.34705943388,-0.01206930091796,100.9345199143,1.2566370614359,1009355.769282,1009262.1996142,-1.374945445496e-07,1009345.199143
958.34705943388,-0.011987535247881,100.93355944152,1.2566370614359,1009346.1056559,1009253.0937819,-1.3893502613837e-07,1009335.5944152
968.34705943388,-0.01190613341138,100.93260547564,1.2566370614359,1009336.5073554,1009244.0520384,-1.4037521382421e-07,1009326.0547564
978.34705943388,-0.011825098853922,100.93165798771,1.2566370614359,1009326.974095,1009235.0740417,-1.4181510456054e-07,1009316.5798771
988.34705943388,-0.011744433710197,100.93071694848,1.2566370614359,1009317.5055849,1009226.1594495,-1.4325469530144e-07,1009307.1694848
998.34705943388,-0.011664142137232,100.92978232858,1.2566370614359,1009308.1015325,1009217.3079192,-1.4469398300158e-07,1009297.8232858
1008.3470594339,-0.011584227093634,100.92885409827,1.2566370614359,1009298.7616436,1009208.5191077,-1.4613296461631e-07,1009288.5409827
1018.3470594339,-0.011504689852726,100.92793222757,1.2566370614359,1009289.4856208,1009199.792672,-1.4757163710161e-07,1009279.3222757
1028.3470594339,-0.011425533260761,100.92701668644,1.2566370614359,1009280.2731642,1009191.1282692,-1.490099974141e-07,1009270.1668644
1038.3470594339,-0.011346759826937,100.92610744458,1.2566370614359,1009271.1239731,1009182.5255563,-1.5044804251108e-07,1009261.0744458
1048.3470594339,-0.011268372097902,100.92520447149,1.2566370614359,1009262.0377442,1009173.9841905,-1.5188576935052e-07,1009252.0447149
1058.3470594339,-0.01119037037326,100.92430773648,1.2566370614359,1009253.0141726,1009165.5038293,-1.5332317489105e-07,1009243.0773648
1068.3470594339,-0.011112756787703,100.92341720884,1.2566370614359,1009244.0529512,1009157.0841308,-1.5476025609199e-07,1009234.1720884
1078.3470594339,-0.011035533138863,100.92253285767,1.2566370614359,1009235.1537727,1009148.7247532,-1.5619700991333e-07,1009225.3285767
1088.3470594339,-0.010958699726347,100.92165465195,1.2566370614359,1009226.3163282,1009140.4253555,-1.5763343331577e-07,1009216.5465195
1098.3470594339,-0.010882258497591,100.92078256061,1.2566370614359,1009217.5403072,1009132.1855971,-1.590695232607e-07,1009207.8256061
1108.3470594339,-0.010806210463764,100.91991655245,1.2566370614359,1009208.8253992,1009124.0051384,-1.6050527671022e-07,1009199.1655245
1118.3470594339,-0.0107305547635,100.91905659619,1.2566370614359,1009200.1712919,1009115.8836402,-1.6194069062714e-07,1009190.5659619
1128.3470594339,-0.010655293194433,100.91820266059,1.2566370614359,1009191.5776724,1009107.8207643,-1.6337576197499e-07,1009182.0266059
1138.3470594339,-0.010580426880083,100.91735471429,1.2566370614359,1009183.0442285,1009099.8161734,-1.6481048771801e-07,1009173.5471429
1148.3470594339,-0.010505954809281,100.91651272584,1.2566370614359,1009174.5706464,1009091.869531,-1.6624486482119e-07,1009165.1272583
1158.3470594339,-0.010431877656142,100.91567666386,1.2566370614359,1009166.1566117,1009083.9805016,-1.6767889025026e-07,1009156.7666386
1168.3470594339,-0.010358195233409,100.91484649693,1.2566370614359,1009157.8018107,1009076.148751,-1.6911256097168e-07,1009148.4649693
1178.3470594339,-0.010284908102846,100.91402219363,1.2566370614359,1009149.5059288,1009068.3739456,-1.7054587395266e-07,1009140.2219363
1188.3470594339,-0.010212015852493,100.91320372251,1.2566370614359,1009141.2686522,1009060.6557534,-1.7197882616117e-07,1009132.0372251
1198.3470594339,-0.01013951792059,100.91239105214,1.2566370614359,1009133.0896662,1009052.9938434,-1.7341141456596e-07,1009123.9105214
1208.3470594339,-0.010067414344587,100.91158415114,1.2566370614359,1009124.9686567,1009045.3878856,-1.7484363613652e-07,1009115.8415114
1218.3470594339,-0.0099957046376268,100.91078298814,1.2566370614359,1009116.9053098,1009037.8375516,-1.7627548784313e-07,1009107.8298814
1228.3470594339,-0.0099243879757925,100.90998753178,1.2566370614359,1009108.8993118,1009030.3425142,-1.7770696665687e-07,1009099.8753178
1238.3470594339,-0.0098534643590843,100.90919775078,1.2566370614359,1009100.9503492,1009022.9024473,-1.7913806954958e-07,1009091.9775078
1248.3470594339,-0.0097829322894742,100.90841361387,1.2566370614359,1009093.0581094,1009015.5170263,-1.805687934939e-07,1009084.1361387
1258.3470594339,-0.0097127914299059,100.9076350899,1.2566370614359,1009085.2222797,1009008.1859281,-1.819991354633e-07,1009076.350899
1268.3470594339,-0.0096430410313652,100.90686214772,1.2566370614359,1009077.4425484,1009000.9088309,-1.8342909243202e-07,1009068.6214772
1278.3470594339,-0.0095736799703312,100.90609475626,1.2566370614359,1009069.7186044,1008993.6854142,-1.8485866137513e-07,1009060.9475626
1288.3470594339,-0.0095047074977897,100.90533288455,1.2566370614359,1009062.050137,1008986.5153593,-1.8628783926853e-07,1009053.3288455
1298.3470594339,-0.0094361221157127,100.90457650165,1.2566370614359,1009054.4368364,1008979.3983486,-1.8771662308894e-07,1009045.7650165
1308.3470594339,-0.0093679233746917,100.90382557676,1.2566370614359,1009046.8783935,1008972.3340662,-1.8914500981391e-07,1009038.2557676
1318.3470594339,-0.0093001100014028,100.90308007912,1.2566370614359,1009039.3745003,1008965.3221977,-1.9057299642183e-07,1009030.8007912
