time,flux,h,injection_area,pp_0,pp_inf,tidal_head,wellPP
0,0,101.05102220199,1.2566370614359,0,0,0,0
1,0,101.05102220199,1.2566370614359,1010501.2549565,1010491.6232491,-1.4544410382007e-10,1010510.2220199
2.1,-0.0046028804663121,101.05102220199,1.2566370614359,1010511.714503,1010475.2648068,-3.0543261435009e-10,1010510.2220199
3.31,-0.0068732865191814,101.05097788013,1.2566370614359,1010511.5339225,1010457.8402369,-4.814199667457e-10,1010509.7788013
4.641,-0.0093653460547737,101.05090507777,1.2566370614359,1010510.8926023,1010439.1074096,-6.7500603694961e-10,1010509.0507777
6.1051,-0.012030566180333,101.05079595949,1.2566370614359,1010509.9526989,1010418.8899353,-8.8795068467744e-10,1010507.9595949
7.71561,-0.014865814931033,101.05064177083,1.2566370614359,1010508.6361035,1010397.0251019,-1.1221897503008e-09,1010506.4177083
9.487171,-0.01788160640444,101.05043219182,1.2566370614359,1010506.8544377,1010373.3496975,-1.3798526508756e-09,1010504.3219182
11.4358881,-0.021089660386045,101.05015488645,1.2566370614359,1010504.5035716,1010347.6942399,-1.6632817350412e-09,1010501.5488645
13.57947691,-0.024498311417411,101.04979512551,1.2566370614359,1010501.4594825,1010319.8799018,-1.9750535724212e-09,1010497.9512551
15.937424601,-0.028110258196185,101.04933542683,1.2566370614359,1010497.5746624,1010289.7164894,-2.3180023706367e-09,1010493.3542683
18.5311670611,-0.031921892609304,101.04875520424,1.2566370614359,1010492.6745751,1010257.0008862,-2.6952457322324e-09,1010487.5520424
21.38428376721,-0.035923803782005,101.04803041604,1.2566370614359,1010486.5541054,1010221.5157141,-3.1102129848979e-09,1010480.3041604
24.522712143931,-0.040101921223081,101.04713319907,1.2566370614359,1010478.9739533,1010183.0281008,-3.566676341488e-09,1010471.3319907
27.974983358324,-0.044438753394523,101.0460314745,1.2566370614359,1010469.6568769,1010141.2884934,-4.0687851717294e-09,1010460.314745
31.772481694157,-0.048914342779341,101.04468851659,1.2566370614359,1010458.2836738,1010096.0294917,-4.6211036953111e-09,1010446.8851659
35.949729863572,-0.053506759556733,101.04306248325,1.2566370614359,1010444.4888295,1010046.9646802,-5.2286524365364e-09,1010430.6248325
40.544702849929,-0.058192125008773,101.041105917,1.2566370614359,1010427.8558218,1009993.7874531,-5.8969538140733e-09,1010411.05917
45.599173134922,-0.062944266674338,101.03876523288,1.2566370614359,1010407.9121565,1009936.1698248,-6.6320822758114e-09,1010387.6523288
51.159090448415,-0.06773414138358,101.03598021841,1.2566370614359,1010384.1242931,1009873.7612249,-7.4407194286655e-09,1010359.8021841
57.274999493256,-0.072529183428447,101.03268357789,1.2566370614359,1010355.8926964,1009806.1872776,-8.3302146565827e-09,1010326.8357789
64.002499442582,-0.077292684041983,101.02880055961,1.2566370614359,1010322.5473281,1009733.0485682,-9.3086517672546e-09,1010288.0055961
71.40274938684,-0.081983324125911,101.02424871192,1.2566370614359,1010283.3439565,1009653.9193978,-1.0384922259302e-08,1010242.4871192
79.543024325524,-0.086554929922248,101.01893781904,1.2566370614359,1010237.4617365,1009568.3465335,-1.1568805857179e-08,1010189.3781904
88.497326758076,-0.09095653405795,101.01277007258,1.2566370614359,1010184.0025631,1009475.8479576,-1.2871059020821e-08,1010127.7007258
98.347059433884,-0.095132793120251,101.00564053617,1.2566370614359,1010121.9927529,1009375.9116244,-1.4303512201197e-08,1010056.4053617
109.18176537727,-0.099024823181837,100.99743795907,1.2566370614359,1010050.3876243,1009267.9942317,-1.5879176681274e-08,1009974.3795907
121.099941915,-0.10257149473381,100.98804598609,1.2566370614359,1009968.0795308,1009151.5200172,-1.7612361914172e-08,1009880.4598609
134.2099361065,-0.10571121635028,100.97734479478,1.2566370614359,1009873.9098181,1009025.8795921,-1.9518804345923e-08,1009773.4479478
148.63092971715,-0.10838421629759,100.96521316359,1.2566370614359,1009766.6850147,1008890.4288227,-2.1615808788268e-08,1009652.1316359
164.49402268886,-0.11053529017998,100.95153093456,1.2566370614359,1009645.1972949,1008744.4877776,-2.3922403485905e-08,1009515.3093456
181.94342495775,-0.11211693496422,100.93618178015,1.2566370614359,1009508.2488564,1008587.3397559,-2.6459510100285e-08,1009361.8178015
201.13776745353,-0.11309272111578,100.91905611685,1.2566370614359,1009354.6793209,1008418.2304181,-2.925012990538e-08,1009190.5611685
222.25154419888,-0.11344068147553,100.90005393267,1.2566370614359,1009183.3946,1008236.3670413,-3.2319547555297e-08,1009000.5393267
245.47669861877,-0.1131564091069,100.87908721816,1.2566370614359,1008993.394924,1008040.9179278,-3.5695553832918e-08,1008790.8721816
271.02436848064,-0.11225547095629,100.85608162702,1.2566370614359,1008783.7989606,1007831.011996,-3.9408688814333e-08,1008560.8162702
299.12680532871,-0.11077469645682,100.83097696139,1.2566370614359,1008553.8603174,1007605.7385899,-4.3492506873855e-08,1008309.7696139
330.03948586158,-0.10877187649958,100.8037261035,1.2566370614359,1008302.9724196,1007364.1475563,-4.7983864892624e-08,1008037.261035
364.04343444774,-0.10632347392239,100.77429212852,1.2566370614359,1008030.6580081,1007105.2496674,-5.2923234898487e-08,1007742.9212852
401.44777789251,-0.10352011377103,100.7426435551,1.2566370614359,1007736.5406265,1006828.0175452,-5.8355042126302e-08,1007426.435551
442.59255568176,-0.10045987438038,100.70874802687,1.2566370614359,1007420.2976602,1006531.3873962,-6.4328029106316e-08,1007087.4802687
487.85181124994,-0.097239826661394,100.67256515938,1.2566370614359,1007081.5978238,1006214.2621352,-7.0895645810472e-08,1006725.6515938
537.63699237493,-0.09394669104958,100.63403975445,1.2566370614359,1006720.0303738,1005875.5168821,-7.8116465041028e-08,1006340.3975445
587.63699237493,-0.086640215359181,100.59665845132,1.2566370614359,1006335.3566174,1005544.6268517,-8.5364318658008e-08,1005966.5845132
637.63699237493,-0.080041342910319,100.56218438822,1.2566370614359,1005962.0677004,1005222.3524595,-9.2607657805562e-08,1005621.8438822
687.63699237493,-0.076353464045094,100.53033601049,1.2566370614359,1005617.6197853,1004908.1049968,-9.9846099421614e-08,1005303.3601049
737.63699237493,-0.075062988288765,100.49995503642,1.2566370614359,1005299.2381135,1004601.3723987,-1.0707926070309e-07,1004999.5503642
787.63699237493,-0.074632899062023,100.47008754148,1.2566370614359,1004995.4620535,1004301.704159,-1.1430675912618e-07,1004700.8754148
837.63699237493,-0.07390299329029,100.44039117865,1.2566370614359,1004696.8446114,1004008.7067957,-1.2152821246652e-07,1004403.9117865
887.63699237493,-0.07254430767008,100.41098524466,1.2566370614359,1004399.9884869,1003722.0407233,-1.2874323881948e-07,1004109.8524466
937.63699237493,-0.070802597758037,100.38211993046,1.2566370614359,1004106.0671185,1003441.4146218,-1.3595145662028e-07,1003821.1993046
987.63699237493,-0.069049880260517,100.35394764104,1.2566370614359,1003817.5528397,1003166.5777574,-1.4315248466424e-07,1003539.4764104
1037.6369923749,-0.067500577304034,100.32647275633,1.2566370614359,1003535.9526495,1002897.3123209,-1.5034594212689e-07,1003264.7275633
1087.6369923749,-0.066167677354089,100.29961433785,1.2566370614359,1003261.3093104,1002633.42729,-1.5753144858414e-07,1002996.1433785
1137.6369923749,-0.064957690236322,100.27328627906,1.2566370614359,1002992.8208687,1002374.7540995,-1.6470862403237e-07,1002732.8627906
1187.6369923749,-0.063777105103586,100.24743967305,1.2566370614359,1002729.6336933,1002121.1435836,-1.7187708890856e-07,1002474.3967305
1237.6369923749,-0.062583384174284,100.22206282079,1.2566370614359,1002471.2620979,1001872.4635122,-1.7903646411035e-07,1002220.6282079
1287.6369923749,-0.061380419587608,100.197160949,1.2566370614359,1002217.5887835,1001628.5963202,-1.8618637101605e-07,1001971.60949
1337.6369923749,-0.06019016408419,100.17273773573,1.2566370614359,1001968.6642722,1001389.4369443,-1.9332643150475e-07,1001727.3773573
1387.6369923749,-0.059029109680233,100.14878812405,1.2566370614359,1001724.5240329,1001154.8908568,-2.0045626797622e-07,1001487.8812405
1437.6369923749,-0.057900470619758,100.12530049486,1.2566370614359,1001485.1172403,1000924.872383,-2.0757550337095e-07,1001253.0049486
1487.6369923749,-0.056798246738411,100.10226195013,1.2566370614359,1001250.3281802,1000699.3033219,-2.1468376119006e-07,1001022.6195013
1537.6369923749,-0.055714585897132,100.07966197928,1.2566370614359,1001020.0284966,1000478.1118216,-2.2178066551521e-07,1000796.6197928
1587.6369923749,-0.054644467754307,100.05749319609,1.2566370614359,1000794.1134827,1000261.2314442,-2.2886584102849e-07,1000574.9319609
1637.6369923749,-0.053586432743692,100.03575021195,1.2566370614359,1000572.5093923,1000048.6003665,-2.3593891303228e-07,1000357.5021195
1687.6369923749,-0.052540989146229,100.01442821897,1.2566370614359,1000355.1622987,999840.16068755,-2.4299950746902e-07,1000144.2821897
1737.6369923749,-0.05150881822765,99.993522207058,1.2566370614359,1000142.024069,999635.85783318,-2.5004725094104e-07,999935.22207058
1787.6369923749,-0.050489895869705,99.973026895014,1.2566370614359,999933.04460395,999435.64004958,-2.570817707303e-07,999730.26895014
1837.6369923749,-0.049483535788263,99.952937011253,1.2566370614359,999728.17114607,999239.45797954,-2.6410269481808e-07,999529.37011253
1887.6369923749,-0.048488841525851,99.933247557254,1.2566370614359,999527.35105068,999047.26430939,-2.7110965190466e-07,999332.47557254
1937.6369923749,-0.047505081932397,99.913953891201,1.2566370614359,999330.53439066,998859.01347442,-2.7810227142896e-07,999139.53891201
1987.6369923749,-0.046531811793947,99.895051662197,1.2566370614359,999137.67478309,998674.66141215,-2.8508018358816e-07,998950.51662197
2037.6369923749,-0.045568795096171,99.876536696498,1.2566370614359,998948.72873777,998494.16535521,-2.9204301935721e-07,998765.36696498
2087.6369923749,-0.044615873909455,99.85840491427,1.2566370614359,998763.65452973,998317.48365768,-2.9899041050839e-07,998584.0491427
2137.6369923749,-0.043672883113651,99.840652298517,1.2566370614359,998582.41137371,998144.57565021,-3.0592198963074e-07,998406.52298517
2187.6369923749,-0.042739629650385,99.823274897947,1.2566370614359,998404.95911502,997975.40151992,-3.1283739014955e-07,998232.74897947
2237.6369923749,-0.041815914469172,99.806268838083,1.2566370614359,998231.25825646,997809.92221128,-3.1973624634568e-07,998062.68838083
2287.6369923749,-0.04090155683292,99.789630323651,1.2566370614359,998061.2700676,997648.09934446,-3.2661819337494e-07,997896.30323651
2337.6369923749,-0.039996405553142,99.773355631294,1.2566370614359,997894.95660764,997489.89514834,-3.3348286728739e-07,997733.55631294
2387.6369923749,-0.039100336593109,99.757441097809,1.2566370614359,997732.28065282,997335.2724056,-3.4032990504657e-07,997574.41097809
2437.6369923749,-0.038213240858926,99.741883109351,1.2566370614359,997573.20557973,997184.19440792,-3.4715894454868e-07,997418.83109351
2487.6369923749,-0.037335014237637,99.726678095481,1.2566370614359,997417.69525811,997036.62491956,-3.5396962464178e-07,997266.78095481
2537.6369923749,-0.036465558645851,99.711822527186,1.2566370614359,997265.7139913,996892.52814796,-3.6076158514486e-07,997118.22527186
2587.6369923749,-0.035604777048799,99.697312914483,1.2566370614359,997117.22649683,996751.86872015,-3.6753446686687e-07,996973.12914483
2637.6369923749,-0.034752576231681,99.683145805996,1.2566370614359,996972.19788222,996614.61166394,-3.7428791162577e-07,996831.45805996
2687.6369923749,-0.033908867586133,99.669317787442,1.2566370614359,996830.5936407,996480.72239297,-3.810215622674e-07,996693.17787442
2737.6369923749,-0.033073565537301,99.655825479792,1.2566370614359,996692.37963617,996350.16669499,-3.8773506268444e-07,996558.25479792
2787.6369923749,-0.032246587206777,99.642665538069,1.2566370614359,996557.52208491,996222.91072263,-3.9442805783519e-07,996426.65538069
2837.6369923749,-0.03142785035282,99.629834650274,1.2566370614359,996425.98754354,996098.92098628,-4.0110019376236e-07,996298.34650274
2887.6369923749,-0.030617275430135,99.61732953713,1.2566370614359,996297.74289843,995978.16434855,-4.0775111761183e-07,996173.2953713
2937.6369923749,-0.029814781844812,99.605146951013,1.2566370614359,996172.75536311,995860.60802006,-4.1438047765123e-07,996051.46951013
2987.6369923749,-0.029020289115289,99.593283676365,1.2566370614359,996050.99246767,995746.21955617,-4.2098792328861e-07,995932.83676365
3037.6369923749,-0.028233717846076,99.581736529654,1.2566370614359,995932.42206282,995634.96685454,-4.2757310509096e-07,995817.36529654
3087.6369923749,-0.027454988679134,99.570502358936,1.2566370614359,995817.01231946,995526.81815311,-4.3413567480268e-07,995705.02358936
3137.6369923749,-0.026684023717001,99.559578043848,1.2566370614359,995704.73172432,995421.74202863,-4.40675285364e-07,995595.78043848
3187.6369923749,-0.025920744125948,99.54896049502,1.2566370614359,995595.54907997,995319.70739532,-4.4719159092935e-07,995489.6049502
3237.6369923749,-0.02516506968657,99.538646654447,1.2566370614359,995489.43349901,995220.68350376,-4.5368424688563e-07,995386.46654447
3287.6369923749,-0.024416922613755,99.528633496049,1.2566370614359,995386.35440754,995124.6399398,-4.6015290987045e-07,995286.33496049
3337.6369923749,-0.02367622373672,99.518918024692,1.2566370614359,995286.28155102,995031.54662356,-4.6659723779027e-07,995189.18024692
3387.6369923749,-0.022942893997029,99.509497276747,1.2566370614359,995189.18498431,994941.37380822,-4.7301688983852e-07,995094.97276747
3437.6369923749,-0.022216854486053,99.500368320039,1.2566370614359,995095.03507733,994854.09207893,-4.794115265136e-07,995003.68320039
3487.6369923749,-0.021498027643385,99.491528253795,1.2566370614359,995003.80251451,994769.67235143,-4.8578080963683e-07,994915.28253795
3537.6369923749,-0.02078633429824,99.482974208099,1.2566370614359,994915.45829426,994688.08587061,-4.9212440237036e-07,994829.74208099
3587.6369923749,-0.020081696291001,99.474703344539,1.2566370614359,994829.97372367,994609.30420895,-4.9844196923497e-07,994747.03344539
3637.6369923749,-0.019384036398318,99.466712855803,1.2566370614359,994747.32042469,994533.29926468,-5.047331761278e-07,994667.12855803
3687.6369923749,-0.018693276760182,99.458999965306,1.2566370614359,994667.47033031,994460.04325988,-5.1099769034004e-07,994589.99965306
3737.6369923749,-0.01800934007834,99.451561927441,1.2566370614359,994590.39568079,994389.50873842,-5.1723518057451e-07,994515.61927441
3787.6369923749,-0.017332149054542,99.444396027363,1.2566370614359,994516.06902617,994321.66856362,-5.2344531696319e-07,994443.96027363
3837.6369923749,-0.016661628000919,99.437499580978,1.2566370614359,994444.46322394,994256.49591585,-5.2962777108466e-07,994374.99580978
3887.6369923749,-0.015997701341951,99.430869934312,1.2566370614359,994375.5514392,994193.96428998,-5.3578221598146e-07,994308.69934312
3937.6369923749,-0.015340293202514,99.424504463461,1.2566370614359,994309.3071381,994134.04749259,-5.4190832617741e-07,994245.04463461
3987.6369923749,-0.014689329130612,99.418400574713,1.2566370614359,994245.70408752,994076.71963914,-5.4800577769478e-07,994184.00574713
4037.6369923749,-0.01404473534836,99.412555703978,1.2566370614359,994184.71635615,994021.95515094,-5.5407424807147e-07,994125.55703978
4087.6369923749,-0.013406437815719,99.406967316524,1.2566370614359,994126.31830892,993969.72875202,-5.6011341637802e-07,994069.67316524
4137.6369923749,-0.012774364627338,99.40163290708,1.2566370614359,994070.48460421,993920.01546589,-5.6612296323462e-07,994016.3290708
4187.6369923749,-0.012148443203756,99.396549998984,1.2566370614359,994017.190195,993872.79061222,-5.7210257082796e-07,993965.49998984
4237.6369923749,-0.011528602276285,99.391716144454,1.2566370614359,993966.41032029,993828.02980335,-5.7805192292808e-07,993917.16144454
4287.6369923749,-0.010914771887013,99.387128924067,1.2566370614359,993918.12050785,993785.70894079,-5.8397070490507e-07,993871.28924067
4337.6369923749,-0.010306882901942,99.382785946235,1.2566370614359,993872.29656883,993745.80421162,-5.8985860374571e-07,993827.85946235
4387.6369923749,-0.0097048657751168,99.378684846879,1.2566370614359,993828.91459287,993708.2920848,-5.9571530807001e-07,993786.84846879
4437.6369923749,-0.009108652645864,99.374823289592,1.2566370614359,993787.95094451,993673.14930746,-6.0154050814774e-07,993748.23289592
4487.6369923749,-0.0085181761778198,99.371198964967,1.2566370614359,993749.38226499,993640.35290107,-6.073338959147e-07,993711.98964967
4537.6369923749,-0.0079333710569586,99.367809590394,1.2566370614359,993713.18546543,993609.88015767,-6.1309516498914e-07,993678.09590394
4587.6369923749,-0.0073541715947476,99.364652909248,1.2566370614359,993679.33772488,993581.70863596,-6.1882401068785e-07,993646.52909248
4637.6369923749,-0.0067805132636258,99.361726691042,1.2566370614359,993647.81648219,993555.81615743,-6.2452013004234e-07,993617.26691042
4687.6369923749,-0.0062123328842575,99.359028730966,1.2566370614359,993618.5994375,993532.18080244,-6.3018322181485e-07,993590.28730966
4737.6369923749,-0.0056495678765183,99.356556849347,1.2566370614359,993591.66454761,993510.78090626,-6.3581298651427e-07,993565.56849347
4787.6369923749,-0.0050921559973402,99.354308891414,1.2566370614359,993566.99002067,993491.59505513,-6.4140912641197e-07,993543.08891414
4837.6369923749,-0.0045400372506971,99.352282727162,1.2566370614359,993544.55431378,993474.60208235,-6.4697134555759e-07,993522.82727162
4887.6369923749,-0.0039931517529152,99.350476250459,1.2566370614359,993524.33613154,993459.78106425,-6.5249934979462e-07,993504.76250459
4937.6369923749,-0.0034514405940391,99.348887378999,1.2566370614359,993506.31441732,993447.11131629,-6.5799284677604e-07,993488.87378999
4987.6369923749,-0.0029148462872398,99.347514053918,1.2566370614359,993490.46835261,993436.5723891,-6.6345154597969e-07,993475.14053918
5037.6369923749,-0.002383311532942,99.346354239225,1.2566370614359,993476.77735326,993428.14406455,-6.6887515872372e-07,993463.54239225
5087.6369923749,-0.0018567800052887,99.345405921728,1.2566370614359,993465.22106379,993421.80635182,-6.7426339818181e-07,993454.05921728
5137.6369923749,-0.0013351970262538,99.344667110648,1.2566370614359,993455.77935661,993417.53948351,-6.7961597939832e-07,993446.67110648
5187.6369923749,-0.000818508554473,99.344135836963,1.2566370614359,993448.43232819,993415.32391175,-6.8493261930343e-07,993441.35836963
5237.6369923749,-0.00030666111034273,99.343810153152,1.2566370614359,993443.16029254,993415.14030439,-6.9021303672802e-07,993438.10153152
5287.6369923749,0.00020039784947309,99.343688132974,1.2566370614359,993439.94377854,993416.9695411,-6.9545695241864e-07,993436.88132974
5337.6369923749,0.00070271895832469,99.343767871097,1.2566370614359,993438.76352785,993420.79270965,-7.0066408905217e-07,993437.67871096
5387.6369923749,0.001200352887013,99.344047482333,1.2566370614359,993439.60049109,993426.59110208,-7.0583417125057e-07,993440.47482333
5437.6369923749,0.0016933503063389,99.344525101657,1.2566370614359,993442.43582038,993434.34621102,-7.1096692559542e-07,993445.25101657
5487.6369923749,0.0021817586288923,99.345198884208,1.2566370614359,993447.25086923,993444.03972596,-7.1606208064236e-07,993451.98884208
5537.6369923749,0.0026656267652909,99.346067003987,1.2566370614359,993454.02719283,993455.65352962,-7.2111936693546e-07,993460.67003987
5587.6369923749,0.0031449997312797,99.347127654459,1.2566370614359,993462.74653485,993469.1696943,-7.2613851702146e-07,993471.27654459
5637.6369923749,0.0036199252016033,99.348379046999,1.2566370614359,993473.39083357,993484.57047832,-7.3111926546396e-07,993483.79046999
5687.6369923749,0.0040904486039642,99.349819411952,1.2566370614359,993485.94220639,993501.8383225,-7.3606134885737e-07,993498.19411952
5737.6369923749,0.0045566139054876,99.351446997741,1.2566370614359,993500.38296021,993520.9558466,-7.4096450584093e-07,993514.46997741
5787.6369923749,0.0050184638374253,99.35326007028,1.2566370614359,993516.69558263,993541.90584595,-7.4582847711248e-07,993532.6007028
