time,flux,h,injection_area,pp_0,pp_inf,tidal_head,wellPP
0,0,101.05102220199,1.2566370614359,0,0,0,0
1,0,101.05102220199,1.2566370614359,1010504.7685873,1010489.5687503,-1.4544410382007e-10,1010510.2220199
2.1,-0.0037436381680477,101.05102220199,1.2566370614359,1010511.7831576,1010472.3060078,-3.0543261435009e-10,1010510.2220199
3.31,-0.0060691126706247,101.05098615391,1.2566370614359,1010511.5985393,1010454.4783209,-4.814199667457e-10,1010509.8615391
4.641,-0.0087681458373463,101.05092186942,1.2566370614359,1010511.0238782,1010435.7180118,-6.7500603694961e-10,1010509.2186942
6.1051,-0.011784984132798,101.05081970928,1.2566370614359,1010510.1415876,1010415.8112735,-8.8795068467744e-10,1010508.1970928
7.71561,-0.015057365875878,101.0506686681,1.2566370614359,1010508.8602025,1010394.5908052,-1.1221897503008e-09,1010506.686681
9.487171,-0.018519946893037,101.0504563886,1.2566370614359,1010507.0748534,1010371.9059854,-1.3798526508756e-09,1010504.563886
11.4358881,-0.022114244616145,101.05016918394,1.2566370614359,1010504.6666136,1010347.6111867,-1.6632817350412e-09,1010501.6918394
13.57947691,-0.025795827718619,101.04979194499,1.2566370614359,1010501.5021489,1010321.5601678,-1.9750535724212e-09,1010497.9194499
15.937424601,-0.029535282680611,101.04930789905,1.2566370614359,1010497.4327104,1010293.6029626,-2.3180023706367e-09,1010493.0789905
18.5311670611,-0.033315262411473,101.0486982626,1.2566370614359,1010492.291955,1010263.5839398,-2.6952457322324e-09,1010486.982626
21.38428376721,-0.037126203686984,101.04794183787,1.2566370614359,1010485.8928116,1010231.3404679,-3.1102129848979e-09,1010479.4183787
24.522712143931,-0.040962278241515,101.04701459028,1.2566370614359,1010478.0237691,1010196.701916,-3.566676341488e-09,1010470.1459028
27.974983358324,-0.044818183018096,101.04588922904,1.2566370614359,1010468.4449053,1010159.4888524,-4.0687851717294e-09,1010458.8922904
31.772481694157,-0.048686850806948,101.0445348046,1.2566370614359,1010456.8838751,1010119.512368,-4.6211036953111e-09,1010445.348046
35.949729863572,-0.052557919448006,101.04291633366,1.2566370614359,1010443.0320071,1010076.5734797,-5.2286524365364e-09,1010429.1633366
40.544702849929,-0.056416770321575,101.04099446337,1.2566370614359,1010426.5406302,1010030.4625911,-5.8969538140733e-09,1010409.9446337
45.599173134922,-0.06024396284272,101.03872519002,1.2566370614359,1010407.0177604,1009980.9589935,-6.6320822758114e-09,1010387.2519002
51.159090448415,-0.064014962494254,101.03605965244,1.2566370614359,1010384.0253094,1009927.8303983,-7.4407194286655e-09,1010360.5965244
57.274999493256,-0.067700087309695,101.03294402545,1.2566370614359,1010357.0770235,1009870.8324951,-8.3302146565827e-09,1010329.4402545
64.002499442582,-0.071264661308784,101.02931954404,1.2566370614359,1010325.6374053,1009809.708531,-9.3086517672546e-09,1010293.1954404
71.40274938684,-0.074669369867213,101.02512269296,1.2566370614359,1010289.1219277,1009744.1889098,-1.0384922259302e-08,1010251.2269296
79.543024325524,-0.077870842898965,101.02028559922,1.2566370614359,1010246.8988835,1009673.9908086,-1.1568805857179e-08,1010202.8559922
88.497326758076,-0.080822497983987,101.01473666497,1.2566370614359,1010198.2932431,1009598.8178107,-1.2871059020821e-08,1010147.3666497
98.347059433884,-0.083475675611348,101.00840147478,1.2566370614359,1010142.5928937,1009518.3595558,-1.4303512201197e-08,1010084.0147478
109.18176537727,-0.085781100131151,101.00120400224,1.2566370614359,1010079.0575955,1009432.2914119,-1.5879176681274e-08,1010012.0400224
121.099941915,-0.087690677088669,100.99306812531,1.2566370614359,1010006.9309054,1009340.2741901,-1.7612361914172e-08,1009930.6812531
134.2099361065,-0.08915961184805,100.98391943625,1.2566370614359,1009925.4551619,1009241.953964,-1.9518804345923e-08,1009839.1943625
148.63092971715,-0.090148797486583,100.97368730039,1.2566370614359,1009833.8893949,1009136.9621292,-2.1615808788268e-08,1009736.8730039
164.49402268886,-0.090627351480602,100.96230707792,1.2566370614359,1009731.5297115,1009024.9159598,-2.3922403485905e-08,1009623.0707792
181.94342495775,-0.090575122580634,100.94972238022,1.2566370614359,1009617.7313152,1008905.4200811,-2.6459510100285e-08,1009497.2238022
201.13776745353,-0.089984905833214,100.93588719062,1.2566370614359,1009491.9308931,1008778.0694665,-2.925012990538e-08,1009358.8719062
222.25154419888,-0.088864040714731,100.92076765209,1.2566370614359,1009353.6676959,1008642.4547381,-3.2319547555297e-08,1009207.6765209
245.47669861877,-0.087235047681021,100.904343324,1.2566370614359,1009202.6013648,1008498.1706602,-3.5695553832918e-08,1009043.43324
271.02436848064,-0.085134966113844,100.88660775024,1.2566370614359,1009038.5245516,1008344.8287018,-3.9408688814333e-08,1008866.0775024
299.12680532871,-0.082613169184727,100.86756827858,1.2566370614359,1008861.3687731,1008182.0743854,-4.3492506873855e-08,1008675.6827858
330.03948586158,-0.079727616125676,100.84724522823,1.2566370614359,1008671.2029023,1008009.6098019,-4.7983864892624e-08,1008472.4522823
364.04343444774,-0.076539776198374,100.8256707116,1.2566370614359,1008468.225248,1007827.2212055,-5.2923234898487e-08,1008256.707116
401.44777789251,-0.073108799042868,100.80288764558,1.2566370614359,1008252.7522346,1007634.8110395,-5.8355042126302e-08,1008028.8764558
442.59255568176,-0.069485839210814,100.77894967573,1.2566370614359,1008025.2089665,1007432.4331833,-6.4328029106316e-08,1007789.4967573
487.85181124994,-0.065709699300514,100.7539227988,1.2566370614359,1007786.1288163,1007220.3297164,-7.0895645810472e-08,1007539.227988
537.63699237493,-0.061804992925034,100.72788930142,1.2566370614359,1007536.1697957,1006998.9671414,-7.8116465041028e-08,1007278.8930142
587.63699237493,-0.055146681454542,100.7032971508,1.2566370614359,1007276.3632458,1006788.0379814,-8.5364318658008e-08,1007032.971508
637.63699237493,-0.04922723812093,100.68135433628,1.2566370614359,1007030.9115654,1006587.9289096,-9.2607657805562e-08,1006813.5433628
687.63699237493,-0.045641339504396,100.66176686289,1.2566370614359,1006811.7679618,1006398.1277585,-9.9846099421614e-08,1006617.6686289
737.63699237493,-0.043891710266733,100.64360621531,1.2566370614359,1006616.0319326,1006218.1519354,-1.0707926070309e-07,1006436.0621531
787.63699237493,-0.042708499240517,100.62614174361,1.2566370614359,1006434.5191596,1006047.5402289,-1.1430675912618e-07,1006261.4174361
837.63699237493,-0.041182379542409,100.60914807051,1.2566370614359,1006259.9953717,1005885.8533663,-1.2152821246652e-07,1006091.4807051
887.63699237493,-0.03912280240837,100.59276163905,1.2566370614359,1006090.2219467,1005732.6753386,-1.2874323881948e-07,1005927.6163905
937.63699237493,-0.03681077117263,100.57719471147,1.2566370614359,1005926.5410088,1005587.6123309,-1.3595145662028e-07,1005771.9471147
987.63699237493,-0.034593769035531,100.56254773901,1.2566370614359,1005771.0475838,1005450.2898511,-1.4315248466424e-07,1005625.4773901
1037.6369923749,-0.032642683329377,100.5487829097,1.2566370614359,1005624.7326076,1005320.3498715,-1.5034594212689e-07,1005487.829097
1087.6369923749,-0.030935161639637,100.53579441562,1.2566370614359,1005487.2197301,1005197.4491421,-1.5753144858414e-07,1005357.9441562
1137.6369923749,-0.029362736132368,100.52348534286,1.2566370614359,1005357.4594843,1005081.258698,-1.6470862403237e-07,1005234.8534286
1187.6369923749,-0.027836240728809,100.51180193679,1.2566370614359,1005234.4898128,1004971.4639354,-1.7187708890856e-07,1005118.0193679
1237.6369923749,-0.026327417712704,100.50072592186,1.2566370614359,1005117.7754141,1004867.7646348,-1.7903646411035e-07,1005007.2592186
1287.6369923749,-0.024853570806787,100.49025026624,1.2566370614359,1005007.1321594,1004769.8746655,-1.8618637101605e-07,1004902.5026624
1337.6369923749,-0.023442707107214,100.48036105296,1.2566370614359,1004902.4875056,1004677.5214303,-1.9332643150475e-07,1004803.6105296
1387.6369923749,-0.022109679150766,100.47103322107,1.2566370614359,1004803.7011029,1004590.4452342,-2.0045626797622e-07,1004710.3322107
1437.6369923749,-0.020852086085239,100.4622357998,1.2566370614359,1004710.5225313,1004508.3987102,-2.0757550337095e-07,1004622.357998
1487.6369923749,-0.019658579486309,100.45393877366,1.2566370614359,1004622.642984,1004431.1463355,-2.1468376119006e-07,1004539.3877366
1537.6369923749,-0.018518442385953,100.44611664272,1.2566370614359,1004539.7631569,1004358.4639966,-2.2178066551521e-07,1004461.1664272
1587.6369923749,-0.017426096090026,100.43874817129,1.2566370614359,1004461.6284934,1004290.1385574,-2.2886584102849e-07,1004387.4817129
1637.6369923749,-0.016380367530164,100.43181434347,1.2566370614359,1004388.0267296,1004225.9674054,-2.3593891303228e-07,1004318.1434347
1687.6369923749,-0.015381547398723,100.42529661009,1.2566370614359,1004318.767683,1004165.7579821,-2.4299950746902e-07,1004252.9661009
1737.6369923749,-0.014429102172989,100.41917630633,1.2566370614359,1004253.6659042,1004109.3273155,-2.5004725094104e-07,1004191.7630633
1787.6369923749,-0.013521072170037,100.41343497967,1.2566370614359,1004192.5349,1004056.5015688,-2.570817707303e-07,1004134.3497967
1837.6369923749,-0.012654681618673,100.40805495732,1.2566370614359,1004135.1903655,1004007.1156104,-2.6410269481808e-07,1004080.5495732
1887.6369923749,-0.011827187741774,100.40301967098,1.2566370614359,1004081.4557904,1003961.0126038,-2.7110965190466e-07,1004030.1967098
1937.6369923749,-0.011036345107551,100.39831364371,1.2566370614359,1004031.1656698,1003918.0436125,-2.7810227142896e-07,1003983.1364371
1987.6369923749,-0.01028039559276,100.393922292,1.2566370614359,1003984.1653736,1003878.067218,-2.8508018358816e-07,1003939.22292
2037.6369923749,-0.0095578245411758,100.38983173192,1.2566370614359,1003940.3091869,1003840.9491515,-2.9204301935721e-07,1003898.3173192
2087.6369923749,-0.0088671426132474,100.38602868221,1.2566370614359,1003899.4583883,1003806.5619397,-2.9899041050839e-07,1003860.2868221
2137.6369923749,-0.0082068096113708,100.38250045421,1.2566370614359,1003861.4802875,1003774.7845663,-3.0592198963074e-07,1003825.0045421
2187.6369923749,-0.0075752705449138,100.37923497211,1.2566370614359,1003826.2481211,1003745.502149,-3.1283739014955e-07,1003792.3497211
2237.6369923749,-0.0069710294830025,100.37622077883,1.2566370614359,1003793.6412496,1003718.6056318,-3.1973624634568e-07,1003762.2077883
2287.6369923749,-0.0063926902634354,100.37344701252,1.2566370614359,1003763.5452131,1003693.9914919,-3.2661819337494e-07,1003734.4701252
2337.6369923749,-0.005838962222641,100.37090336687,1.2566370614359,1003735.8514952,1003671.5614598,-3.3348286728739e-07,1003709.0336687
2387.6369923749,-0.0053086344670448,100.3685800491,1.2566370614359,1003710.4571289,1003651.2222528,-3.4032990504657e-07,1003685.800491
2437.6369923749,-0.0048005528034361,100.36646774826,1.2566370614359,1003687.264278,1003632.8853214,-3.4715894454868e-07,1003664.6774826
2487.6369923749,-0.0043136119492224,100.36455761265,1.2566370614359,1003666.1799206,1003616.4666076,-3.5396962464178e-07,1003645.5761265
2537.6369923749,-0.0038467527985277,100.36284123037,1.2566370614359,1003647.1156237,1003601.8863156,-3.6076158514486e-07,1003628.4123037
2587.6369923749,-0.003398967403136,100.36131061092,1.2566370614359,1003629.9873482,1003589.0686937,-3.6753446686687e-07,1003613.1061092
2637.6369923749,-0.0029693007701253,100.35995816488,1.2566370614359,1003614.7152648,1003577.9418268,-3.7428791162577e-07,1003599.5816488
2687.6369923749,-0.002556847716008,100.35877668279,1.2566370614359,1003601.223551,1003568.4374397,-3.810215622674e-07,1003587.7668279
2737.6369923749,-0.0021607509192951,100.35775931541,1.2566370614359,1003589.4401805,1003560.49071,-3.8773506268444e-07,1003577.5931541
2787.6369923749,-0.0017801958272,100.35689955458,1.2566370614359,1003579.2967251,1003554.0400902,-3.9442805783519e-07,1003568.9955458
2837.6369923749,-0.0014144092699628,100.35619121627,1.2566370614359,1003570.7281648,1003549.0271393,-4.0110019376236e-07,1003561.9121627
2887.6369923749,-0.0010626555285264,100.35562842411,1.2566370614359,1003563.6727176,1003545.3963624,-4.0775111761183e-07,1003556.2842411
2937.6369923749,-0.00072423693374788,100.35520559443,1.2566370614359,1003558.0716749,1003543.0950591,-4.1438047765123e-07,1003552.0559443
2987.6369923749,-0.00039849064563775,100.35491742122,1.2566370614359,1003553.8692528,1003542.0731785,-4.2098792328861e-07,1003549.1742122
3037.6369923749,-8.4787791994153e-05,100.35475886215,1.2566370614359,1003551.0124409,1003542.2831829,-4.2757310509096e-07,1003547.5886215
3087.6369923749,0.00021746817942828,100.35472512516,1.2566370614359,1003549.4508634,1003543.6799175,-4.3413567480268e-07,1003547.2512516
3137.6369923749,0.00050884382286196,100.35481165556,1.2566370614359,1003549.1366445,1003546.2204873,-4.40675285364e-07,1003548.1165556
3187.6369923749,0.00078987610648404,100.35501412405,1.2566370614359,1003550.0242798,1003549.8641399,-4.4719159092935e-07,1003550.1412405
3237.6369923749,0.0010610762698388,100.35532841504,1.2566370614359,1003552.070517,1003554.5721543,-4.5368424688563e-07,1003553.2841504
3287.6369923749,0.0013229269401337,100.35575061632,1.2566370614359,1003555.2342384,1003560.307736,-4.6015290987045e-07,1003557.5061632
3337.6369923749,0.0015758870382812,100.35627700775,1.2566370614359,1003559.4763584,1003567.0359167,-4.6659723779027e-07,1003562.7700775
3387.6369923749,0.0018203935016311,100.35690405177,1.2566370614359,1003564.75971,1003574.7234596,-4.7301688983852e-07,1003569.0405177
3437.6369923749,0.0020568586624216,100.3576283847,1.2566370614359,1003571.0489505,1003583.3387695,-4.794115265136e-07,1003576.283847
3487.6369923749,0.0022856751912719,100.35844680689,1.2566370614359,1003578.3104741,1003592.8518072,-4.8578080963683e-07,1003584.4680689
3537.6369923749,0.0025072150111118,100.35935627498,1.2566370614359,1003586.512314,1003603.2340089,-4.9212440237036e-07,1003593.5627498
3587.6369923749,0.0027218314693224,100.36035389356,1.2566370614359,1003595.6240643,1003614.458209,-4.9844196923497e-07,1003603.5389356
3637.6369923749,0.0029298590381308,100.36143690783,1.2566370614359,1003605.6167977,1003626.4985677,-5.047331761278e-07,1003614.3690783
3687.6369923749,0.0031316148500885,100.36260269608,1.2566370614359,1003616.4629913,1003639.3305014,-5.1099769034004e-07,1003626.0269608
3737.6369923749,0.0033274000837476,100.36384876279,1.2566370614359,1003628.1364519,1003652.9306176,-5.1723518057451e-07,1003638.4876279
3787.6369923749,0.0035175004130694,100.36517273226,1.2566370614359,1003640.6122468,1003667.2766524,-5.2344531696319e-07,1003651.7273226
3837.6369923749,0.0037021871309451,100.36657234249,1.2566370614359,1003653.8666406,1003682.3474117,-5.2962777108466e-07,1003665.7234249
3887.6369923749,0.0038817166997877,100.36804543939,1.2566370614359,1003667.8770336,1003698.1227151,-5.3578221598146e-07,1003680.4543939
3937.6369923749,0.0040563332981796,100.36958997094,1.2566370614359,1003682.6219044,1003714.5833429,-5.4190832617741e-07,1003695.8997094
3987.6369923749,0.0042262665363799,100.37120398228,1.2566370614359,1003698.0807509,1003731.7109859,-5.4800577769478e-07,1003712.0398228
4037.6369923749,0.004391736661972,100.3728856099,1.2566370614359,1003714.2340419,1003749.4881973,-5.5407424807147e-07,1003728.856099
4087.6369923749,0.0045529509645959,100.37463307794,1.2566370614359,1003731.0631588,1003767.898348,-5.6011341637802e-07,1003746.3307794
4137.6369923749,0.0047101057233853,100.37644469299,1.2566370614359,1003748.5503585,1003786.9255828,-5.6612296323462e-07,1003764.4469299
4187.6369923749,0.0048633878922486,100.37831883979,1.2566370614359,1003766.678722,1003806.5547807,-5.7210257082796e-07,1003783.1883979
4237.6369923749,0.0050129748002638,100.38025397742,1.2566370614359,1003785.4321104,1003826.7715152,-5.7805192292808e-07,1003802.5397742
4287.6369923749,0.0051590326161992,100.38224863554,1.2566370614359,1003804.7951278,1003847.5620185,-5.8397070490507e-07,1003822.4863554
4337.6369923749,0.0053017213669081,100.38430140994,1.2566370614359,1003824.7530837,1003868.9131463,-5.8985860374571e-07,1003843.0140994
4387.6369923749,0.0054411917540187,100.38641096006,1.2566370614359,1003845.2919476,1003890.812345,-5.9571530807001e-07,1003864.1096006
4437.6369923749,0.0055775863898073,100.38857600533,1.2566370614359,1003866.3983254,1003913.2476201,-6.0154050814774e-07,1003885.7600533
4487.6369923749,0.0057110391230859,100.39079532189,1.2566370614359,1003888.0594219,1003936.2075072,-6.073338959147e-07,1003907.9532189
4537.6369923749,0.0058416787468215,100.39306773918,1.2566370614359,1003910.2630089,1003959.6810433,-6.1309516498914e-07,1003930.6773918
4587.6369923749,0.0059696276873616,100.39539213785,1.2566370614359,1003932.9973903,1003983.6577404,-6.1882401068785e-07,1003953.9213785
4637.6369923749,0.0060950001318991,100.39776744729,1.2566370614359,1003956.2513819,1004008.1275599,-6.2452013004234e-07,1003977.6744729
4687.6369923749,0.0062179044627681,100.40019264231,1.2566370614359,1003980.0142859,1004033.0808893,-6.3018322181485e-07,1004001.9264231
4737.6369923749,0.0063384432574436,100.40266674086,1.2566370614359,1004004.2758588,1004058.5085186,-6.3581298651427e-07,1004026.6674086
4787.6369923749,0.0064567155355838,100.40518880168,1.2566370614359,1004029.0262876,1004084.4016192,-6.4140912641197e-07,1004051.8880168
4837.6369923749,0.0065728136131714,100.40775792293,1.2566370614359,1004054.2561674,1004110.7517236,-6.4697134555759e-07,1004077.5792293
4887.6369923749,0.0066868240013297,100.41037323951,1.2566370614359,1004079.9564865,1004137.5507054,-6.5249934979462e-07,1004103.7323951
4937.6369923749,0.0067988303649288,100.41303392071,1.2566370614359,1004106.1186005,1004164.7907616,-6.5799284677604e-07,1004130.3392071
4987.6369923749,0.0069089110133886,100.41573916915,1.2566370614359,1004132.7342085,1004192.4643947,-6.6345154597969e-07,1004157.3916915
5037.6369923749,0.0070171393500864,100.41848821857,1.2566370614359,1004159.7953426,1004220.5643963,-6.6887515872372e-07,1004184.8821857
5087.6369923749,0.0071235864939069,100.42128033195,1.2566370614359,1004187.2943458,1004249.0838313,-6.7426339818181e-07,1004212.8033195
5137.6369923749,0.0072283192943547,100.42411480056,1.2566370614359,1004215.2238532,1004278.0160232,-6.7961597939832e-07,1004241.1480056
5187.6369923749,0.0073313993952866,100.42699094225,1.2566370614359,1004243.5767822,1004307.3545399,-6.8493261930343e-07,1004269.9094225
5237.6369923749,0.007432886755278,100.42990809941,1.2566370614359,1004272.3463164,1004337.0931805,-6.9021303672802e-07,1004299.0809941
5287.6369923749,0.0075328377750871,100.43286563831,1.2566370614359,1004301.525884,1004367.2259623,-6.9545695241864e-07,1004328.6563831
5337.6369923749,0.0076313055598108,100.43586294763,1.2566370614359,1004331.1091518,1004397.747109,-7.0066408905217e-07,1004358.6294763
5387.6369923749,0.0077283399563343,100.43889943719,1.2566370614359,1004361.0900107,1004428.6510393,-7.0583417125057e-07,1004388.9943719
5437.6369923749,0.0078239886768531,100.44197453664,1.2566370614359,1004391.4625626,1004459.932356,-7.1096692559542e-07,1004419.7453664
5487.6369923749,0.0079182974112248,100.44508769464,1.2566370614359,1004422.2211077,1004491.5858358,-7.1606208064236e-07,1004450.8769464
5537.6369923749,0.0080113073177716,100.448238378,1.2566370614359,1004453.3601358,1004523.6064197,-7.2111936693546e-07,1004482.38378
5587.6369923749,0.0081030595548159,100.45142606991,1.2566370614359,1004484.8743182,1004555.9892036,-7.2613851702146e-07,1004514.2606991
5637.6369923749,0.0081935910113002,100.45465026996,1.2566370614359,1004516.7584898,1004588.7294298,-7.3111926546396e-07,1004546.5026996
5687.6369923749,0.0082829370406878,100.45791049239,1.2566370614359,1004549.0076494,1004621.8224785,-7.3606134885737e-07,1004579.1049239
5737.6369923749,0.0083711326219352,100.46120626552,1.2566370614359,1004581.6169419,1004655.2638601,-7.4096450584093e-07,1004612.0626552
5787.6369923749,0.0084582087642243,100.4645371316,1.2566370614359,1004614.5816533,1004689.0492078,-7.4582847711248e-07,1004645.371316
