time,flux,h,injection_area,pp_0,pp_inf,tidal_head,wellPP
0,0,101.05102220199,1.2566370614359,0,0,0,0
1,0,101.05102220199,1.2566370614359,1010508.7985732,1010485.7376848,-1.4544410382007e-10,1010510.2220199
2.1,-0.003596895828166,101.05102220199,1.2566370614359,1010511.7962633,1010466.9044027,-3.0543261435009e-10,1010510.2220199
3.31,-0.0071107816866518,101.05098756691,1.2566370614359,1010511.5187349,1010448.3805656,-4.814199667457e-10,1010509.8756691
4.641,-0.010909218546995,101.05091224899,1.2566370614359,1010510.8720288,1010429.5181233,-6.7500603694961e-10,1010509.1224899
6.1051,-0.014692782047963,101.05078514261,1.2566370614359,1010509.8194161,1010410.0086803,-8.8795068467744e-10,1010507.8514261
7.71561,-0.01834289753444,101.0505968339,1.2566370614359,1010508.2593444,1010389.6539847,-1.1221897503008e-09,1010505.968339
9.487171,-0.021843115197168,101.05033823481,1.2566370614359,1010506.0990512,1010368.3023038,-1.3798526508756e-09,1010503.3823481
11.4358881,-0.025217104666799,101.04999949494,1.2566370614359,1010503.2458198,1010345.8241562,-1.6632817350412e-09,1010499.9949494
13.57947691,-0.028497116728426,101.04956932541,1.2566370614359,1010499.5986091,1010322.1011563,-1.9750535724212e-09,1010495.6932541
15.937424601,-0.031711102676655,101.04903459112,1.2566370614359,1010495.0423237,1010297.0201913,-2.3180023706367e-09,1010490.3459112
18.5311670611,-0.034878763903118,101.04838004367,1.2566370614359,1010489.4440543,1010270.47008,-2.6952457322324e-09,1010483.8004367
21.38428376721,-0.038011207162753,101.04758811955,1.2566370614359,1010482.650437,1010242.3395061,-3.1102129848979e-09,1010475.8811955
24.522712143931,-0.04111176069952,101.04663876852,1.2566370614359,1010474.4855728,1010212.5156562,-3.566676341488e-09,1010466.3876852
27.974983358324,-0.044176984067154,101.04550930052,1.2566370614359,1010464.7492304,1010180.883272,-4.0687851717294e-09,1010455.0930052
31.772481694157,-0.047197558819227,101.04417425338,1.2566370614359,1010453.2152464,1010147.3239583,-4.6211036953111e-09,1010441.7425338
35.949729863572,-0.050158989661209,101.04260529018,1.2566370614359,1010439.6301459,1010111.7156626,-5.2286524365364e-09,1010426.0529018
40.544702849929,-0.053042157297743,101.04077114087,1.2566370614359,1010423.7120731,1010073.9322982,-5.8969538140733e-09,1010407.7114087
45.599173134922,-0.055823762410724,101.03863760587,1.2566370614359,1010405.150172,1010033.8435391,-6.6320822758114e-09,1010386.3760587
51.159090448415,-0.058476717131502,101.03616764325,1.2566370614359,1010383.6045915,1009991.3148877,-7.4407194286655e-09,1010361.6764325
57.274999493256,-0.060970505428987,101.03332156428,1.2566370614359,1010358.7073283,1009946.2082043,-8.3302146565827e-09,1010333.2156428
64.002499442582,-0.063271536232335,101.03005736666,1.2566370614359,1010330.0641552,1009898.3829751,-9.3086517672546e-09,1010300.5736666
71.40274938684,-0.065343482097645,101.02633123916,1.2566370614359,1010297.2579256,1009847.6986611,-1.0384922259302e-08,1010263.3123916
79.543024325524,-0.067147633716318,101.02209827792,1.2566370614359,1010259.8535924,1009794.018489,-1.1568805857179e-08,1010220.9827792
88.497326758076,-0.068643270115252,101.01731346,1.2566370614359,1010217.4053418,1009737.2149911,-1.2871059020821e-08,1010173.1346
98.347059433884,-0.0697881118478,101.01193292633,1.2566370614359,1010169.4662923,1009677.1774684,-1.4303512201197e-08,1010119.3292633
108.34705943388,-0.069823623877546,101.00637920105,1.2566370614359,1010115.6578645,1009618.5241825,-1.5757788812985e-08,1010063.7920105
118.34705943388,-0.069375193805756,101.00082264973,1.2566370614359,1010060.1558812,1009561.9976646,-1.7212032090772e-08,1010008.2264973
128.34705943388,-0.068718349074693,100.99530178439,1.2566370614359,1010004.6421766,1009507.4586428,-1.8666238958255e-08,1009953.0178439
138.34705943388,-0.067907065472359,100.98983319064,1.2566370614359,1009949.4975806,1009454.7927918,-2.0120406339206e-08,1009898.3319064
148.34705943388,-0.066967725595771,100.98442915869,1.2566370614359,1009894.8858538,1009403.9044396,-2.1574531157482e-08,1009844.2915869
158.34705943388,-0.065922769906064,100.97909987924,1.2566370614359,1009840.9281191,1009354.7118929,-2.302861033703e-08,1009790.9987924
168.34705943388,-0.064792086561524,100.97385375717,1.2566370614359,1009787.724707,1009307.1439624,-2.4482640801893e-08,1009738.5375717
178.34705943388,-0.063592876183102,100.96869761468,1.2566370614359,1009735.3583033,1009261.1373918,-2.5936619476217e-08,1009686.9761468
188.34705943388,-0.062339819446307,100.96363690513,1.2566370614359,1009683.8959667,1009216.6349636,-2.7390543284259e-08,1009636.3690513
198.34705943388,-0.061045400205871,100.95867591361,1.2566370614359,1009633.3912417,1009173.5841065,-2.884440915039e-08,1009586.7591361
208.34705943388,-0.059720235136835,100.95381793174,1.2566370614359,1009583.8861379,1009131.9358754,-3.0298213999105e-08,1009538.1793174
218.34705943388,-0.058373368059622,100.94906540626,1.2566370614359,1009535.412855,1009091.6442063,-3.1751954755027e-08,1009490.6540626
228.34705943388,-0.057012514305874,100.94442006423,1.2566370614359,1009487.995249,1009052.6653727,-3.3205628342915e-08,1009444.2006423
238.34705943388,-0.055644266884571,100.93988301868,1.2566370614359,1009441.6500679,1009014.9575905,-3.4659231687671e-08,1009398.8301868
248.34705943388,-0.054274262089037,100.93545485802,1.2566370614359,1009396.3879957,1008978.4807308,-3.6112761714345e-08,1009354.5485802
258.34705943388,-0.052907318551403,100.93113572209,1.2566370614359,1009352.2145345,1008943.1961116,-3.7566215348142e-08,1009311.3572209
268.34705943388,-0.051547550868037,100.92692536728,1.2566370614359,1009309.1307566,1008909.0663457,-3.9019589514427e-08,1009269.2536728
278.34705943388,-0.05019846742078,100.92282322253,1.2566370614359,1009267.1339479,1008876.0552305,-4.0472881138736e-08,1009228.2322253
288.34705943388,-0.048863050446548,100.9188284376,1.2566370614359,1009226.2181615,1008844.127666,-4.1926087146778e-08,1009188.284376
298.34705943388,-0.047543823261347,100.91493992492,1.2566370614359,1009186.3746949,1008813.2495938,-4.3379204464444e-08,1009149.3992492
308.34705943388,-0.046242910293745,100.91115639609,1.2566370614359,1009147.5925039,1008783.3879509,-4.4832230017811e-08,1009111.5639609
318.34705943388,-0.044962087830577,100.90747639368,1.2566370614359,1009109.8585639,1008754.5106331,-4.6285160733151e-08,1009074.7639368
328.34705943388,-0.043702826486042,100.90389831889,1.2566370614359,1009073.1581839,1008726.5864654,-4.7737993536937e-08,1009038.9831889
338.34705943388,-0.042466329363968,100.90042045588,1.2566370614359,1009037.4752804,1008699.5851768,-4.919072535585e-08,1009004.2045588
348.34705943388,-0.041253566100502,100.8970409931,1.2566370614359,1009002.7926182,1008673.4773785,-5.0643353116782e-08,1008970.409931
358.34705943388,-0.040065299379207,100.89375804179,1.2566370614359,1008969.0920212,1008648.2345436,-5.2095873746847e-08,1008937.5804179
368.34705943388,-0.038902112906738,100.89056965254,1.2566370614359,1008936.3545555,1008623.8289876,-5.3548284173385e-08,1008905.6965254
378.34705943388,-0.037764433958164,100.88747382945,1.2566370614359,1008904.5606929,1008600.2338507,-5.500058132397e-08,1008874.7382945
388.34705943388,-0.036652551503106,100.88446854265,1.2566370614359,1008873.6904517,1008577.4230791,-5.6452762126415e-08,1008844.6854265
398.34705943388,-0.035566632609151,100.88155173925,1.2566370614359,1008843.7235195,1008555.3714067,-5.7904823508778e-08,1008815.5173925
408.34705943388,-0.03450674184131,100.87872135308,1.2566370614359,1008814.6393625,1008534.0543377,-5.9356762399372e-08,1008787.2135308
418.34705943388,-0.033472852534683,100.87597531283,1.2566370614359,1008786.4173209,1008513.448128,-6.0808575726767e-08,1008759.7531283
428.34705943388,-0.032464857692612,100.87331154929,1.2566370614359,1008759.0366899,1008493.5297671,-6.22602604198e-08,1008733.1154929
438.34705943388,-0.031482583394033,100.87072800181,1.2566370614359,1008732.4767913,1008474.2769598,-6.3711813407578e-08,1008707.2800181
448.34705943388,-0.030525796658123,100.86822262354,1.2566370614359,1008706.7170367,1008455.6681081,-6.5163231619491e-08,1008682.2262354
458.34705943388,-0.02959421491933,100.86579338618,1.2566370614359,1008681.7369801,1008437.6822928,-6.6614511985209e-08,1008657.9338618
468.34705943388,-0.028687511270469,100.86343828392,1.2566370614359,1008657.5163642,1008420.2992557,-6.8065651434696e-08,1008634.3828392
478.34705943388,-0.027805325173623,100.86115533698,1.2566370614359,1008634.0351596,1008403.4993811,-6.9516646898215e-08,1008611.5533698
488.34705943388,-0.026947263096808,100.85894259425,1.2566370614359,1008611.2735992,1008387.2636783,-7.0967495306332e-08,1008589.4259425
498.34705943388,-0.026112908663109,100.85679813594,1.2566370614359,1008589.2122052,1008371.5737637,-7.2418193589925e-08,1008567.9813594
508.34705943388,-0.025301823961457,100.85472007541,1.2566370614359,1008567.8318141,1008356.4118435,-7.3868738680189e-08,1008547.2007541
518.34705943388,-0.024513555014435,100.85270656085,1.2566370614359,1008547.1135954,1008341.7606965,-7.5319127508643e-08,1008527.0656085
528.34705943388,-0.023747634137663,100.85075577659,1.2566370614359,1008527.039068,1008327.6036569,-7.6769357007137e-08,1008507.5577659
538.34705943388,-0.023003585220358,100.84886594417,1.2566370614359,1008507.5901129,1008313.9245985,-7.8219424107858e-08,1008488.6594417
548.34705943388,-0.022280923350819,100.84703532303,1.2566370614359,1008488.7489839,1008300.7079175,-7.9669325743336e-08,1008470.3532303
558.34705943388,-0.021579161520107,100.84526221119,1.2566370614359,1008470.4983138,1008287.9385173,-8.1119058846452e-08,1008452.6221119
568.34705943388,-0.020897807363831,100.84354494544,1.2566370614359,1008452.8211218,1008275.6017924,-8.2568620350442e-08,1008435.4494544
578.34705943388,-0.020236370390136,100.84188190172,1.2566370614359,1008435.7008144,1008263.6836138,-8.4018007188907e-08,1008418.8190172
588.34705943388,-0.019594359470506,100.84027149503,1.2566370614359,1008419.1211902,1008252.1703137,-8.5467216295817e-08,1008402.7149503
598.34705943388,-0.018971286023071,100.83871217946,1.2566370614359,1008403.0664377,1008241.0486712,-8.6916244605515e-08,1008387.1217946
608.34705943388,-0.018366665997498,100.83720244796,1.2566370614359,1008387.521136,1008230.3058983,-8.8365089052731e-08,1008372.0244796
618.34705943388,-0.01778001897617,100.83574083202,1.2566370614359,1008372.4702526,1008219.9296263,-8.9813746572582e-08,1008357.4083202
628.34705943388,-0.01721087030888,100.83432590133,1.2566370614359,1008357.8991401,1008209.907892,-9.1262214100578e-08,1008343.2590133
638.34705943388,-0.016658751861843,100.8329562634,1.2566370614359,1008343.7935324,1008200.2291256,-9.2710488572635e-08,1008329.562634
648.34705943388,-0.016123201718089,100.83163056294,1.2566370614359,1008330.139541,1008190.8821371,-9.4158566925076e-08,1008316.3056294
658.34705943388,-0.015603766649214,100.83034748148,1.2566370614359,1008316.9236491,1008181.8561049,-9.5606446094636e-08,1008303.4748148
668.34705943388,-0.015100000055585,100.82910573656,1.2566370614359,1008304.1327071,1008173.1405635,-9.7054123018476e-08,1008291.0573656
678.34705943388,-0.014611464063586,100.82790408129,1.2566370614359,1008291.7539252,1008164.7253924,-9.8501594634182e-08,1008279.0408129
688.34705943388,-0.01413772836464,100.82674130363,1.2566370614359,1008279.7748686,1008156.6008043,-9.9948857879775e-08,1008267.4130363
698.34705943388,-0.013678373922835,100.82561622578,1.2566370614359,1008268.1834498,1008148.7573349,-1.0139590969372e-07,1008256.1622578
708.34705943388,-0.013232988256128,100.82452770326,1.2566370614359,1008256.9679236,1008141.1858321,-1.0284274701491e-07,1008245.2770326
718.34705943388,-0.012801169106522,100.82347462446,1.2566370614359,1008246.1168771,1008133.8774458,-1.0428936678273e-07,1008234.7462446
728.34705943388,-0.012382522679875,100.82245590974,1.2566370614359,1008235.6192252,1008126.8236183,-1.0573576593699e-07,1008224.5590974
738.34705943388,-0.011976664544723,100.82147051083,1.2566370614359,1008225.4642021,1008120.0160744,-1.0718194141799e-07,1008214.7051083
748.34705943388,-0.011583219969334,100.82051741004,1.2566370614359,1008215.6413546,1008113.4468125,-1.0862789016648e-07,1008205.1741004
758.34705943388,-0.011201822947988,100.8195956195,1.2566370614359,1008206.1405348,1008107.1080954,-1.100736091237e-07,1008195.956195
768.34705943388,-0.010832116200982,100.81870418046,1.2566370614359,1008196.9518923,1008100.9924417,-1.1151909523139e-07,1008187.0418046
778.34705943388,-0.010473752485397,100.81784216262,1.2566370614359,1008188.0658671,1008095.0926175,-1.1296434543177e-07,1008178.4216262
788.34705943388,-0.010126392722572,100.8170086633,1.2566370614359,1008179.473183,1008089.4016282,-1.1440935666756e-07,1008170.086633
798.34705943388,-0.0097897071590667,100.8162028068,1.2566370614359,1008171.1648392,1008083.9127104,-1.1585412588198e-07,1008162.028068
808.34705943388,-0.009463374430401,100.81542374368,1.2566370614359,1008163.1321044,1008078.6193249,-1.1729865001877e-07,1008154.2374368
818.34705943388,-0.0091470824973187,100.81467065006,1.2566370614359,1008155.3665086,1008073.5151485,-1.1874292602219e-07,1008146.7065006
828.34705943388,-0.008840527372465,100.8139427269,1.2566370614359,1008147.8598373,1008068.5940678,-1.2018695083701e-07,1008139.427269
838.34705943388,-0.0085434125211748,100.81323919933,1.2566370614359,1008140.6041232,1008063.8501714,-1.2163072140855e-07,1008132.3919933
848.34705943388,-0.0082554503220505,100.81255931611,1.2566370614359,1008133.5916409,1008059.2777438,-1.2307423468267e-07,1008125.5931611
858.34705943388,-0.0079763627410742,100.81190234888,1.2566370614359,1008126.8148996,1008054.871259,-1.2451748760574e-07,1008119.0234888
868.34705943388,-0.007705876687721,100.81126759138,1.2566370614359,1008120.2666373,1008050.6253737,-1.2596047712473e-07,1008112.6759138
878.34705943388,-0.0074437289584513,100.81065435911,1.2566370614359,1008113.9398124,1008046.5349217,-1.2740320018712e-07,1008106.5435911
888.34705943388,-0.0071896640271196,100.81006198851,1.2566370614359,1008107.8276002,1008042.5949082,-1.28845653741e-07,1008100.6198851
898.34705943388,-0.0069434310489186,100.80948983635,1.2566370614359,1008101.9233848,1008038.8005035,-1.3028783473498e-07,1008094.8983635
908.34705943388,-0.0067047896652374,100.80893727937,1.2566370614359,1008096.2207529,1008035.1470383,-1.317297401183e-07,1008089.3727937
918.34705943388,-0.0064735048729157,100.80840371342,1.2566370614359,1008090.7134905,1008031.6299977,-1.3317136684073e-07,1008084.0371342
928.34705943388,-0.0062493487469762,100.80788855308,1.2566370614359,1008085.3955743,1008028.2450167,-1.3461271185267e-07,1008078.8855308
938.34705943388,-0.0060320999912158,100.80739123104,1.2566370614359,1008080.2611674,1008024.9878749,-1.360537721051e-07,1008073.9123104
948.34705943388,-0.0058215440131073,100.80691119762,1.2566370614359,1008075.3046139,1008021.8544918,-1.374945445496e-07,1008069.1119762
958.34705943388,-0.0056174730736021,100.8064479202,1.2566370614359,1008070.5204332,1008018.840922,-1.3893502613837e-07,1008064.479202
968.34705943388,-0.0054196843396937,100.80600088271,1.2566370614359,1008065.9033154,1008015.9433511,-1.4037521382421e-07,1008060.0088271
978.34705943388,-0.005227982356164,100.80556958521,1.2566370614359,1008061.4481151,1008013.158091,-1.4181510456054e-07,1008055.6958521
988.34705943388,-0.0050421765738371,100.80515354333,1.2566370614359,1008057.149848,1008010.4815761,-1.4325469530144e-07,1008051.5354333
998.34705943388,-0.004862083109762,100.80475228783,1.2566370614359,1008053.0036849,1008007.9103587,-1.4469398300158e-07,1008047.5228783
1008.3470594339,-0.0046875227997765,100.80436536414,1.2566370614359,1008049.0049478,1008005.4411057,-1.4613296461631e-07,1008043.6536414
1018.3470594339,-0.0045183220973235,100.80399233192,1.2566370614359,1008045.1491046,1008003.0705944,-1.4757163710161e-07,1008039.9233192
1028.3470594339,-0.0043543129236488,100.80363276467,1.2566370614359,1008041.4317652,1008000.795709,-1.490099974141e-07,1008036.3276467
1038.3470594339,-0.0041953325554486,100.80328624924,1.2566370614359,1008037.8486774,1007998.6134369,-1.5044804251108e-07,1008032.8624924
1048.3470594339,-0.0040412220519401,100.80295238544,1.2566370614359,1008034.3957223,1007996.5208655,-1.5188576935052e-07,1008029.5238544
1058.3470594339,-0.0038918291760163,100.80263078572,1.2566370614359,1008031.0689102,1007994.515179,-1.5332317489105e-07,1008026.3078572
1068.3470594339,-0.0037470049113307,100.80232107466,1.2566370614359,1008027.8643773,1007992.5936545,-1.5476025609199e-07,1008023.2107466
1078.3470594339,-0.0036066048479731,100.80202288869,1.2566370614359,1008024.7783808,1007990.7536599,-1.5619700991333e-07,1008020.2288869
1088.3470594339,-0.0034704898940332,100.80173587573,1.2566370614359,1008021.8072961,1007988.9926501,-1.5763343331577e-07,1008017.3587573
1098.3470594339,-0.0033385252269808,100.80145969477,1.2566370614359,1008018.9476129,1007987.3081645,-1.590695232607e-07,1008014.5969477
1108.3470594339,-0.0032105784585815,100.80119401554,1.2566370614359,1008016.1959318,1007985.6978242,-1.6050527671022e-07,1008011.9401554
1118.3470594339,-0.0030865238668258,100.80093851829,1.2566370614359,1008013.5489599,1007984.159329,-1.6194069062714e-07,1008009.3851829
1128.3470594339,-0.0029662373026339,100.80069289328,1.2566370614359,1008011.0035095,1007982.6904552,-1.6337576197499e-07,1008006.9289328
1138.3470594339,-0.0028496008337425,100.80045684065,1.2566370614359,1008008.5564927,1007981.2890528,-1.6481048771801e-07,1008004.5684065
1148.3470594339,-0.0027364973892546,100.80023006994,1.2566370614359,1008006.2049201,1007979.953043,-1.6624486482119e-07,1008002.3006994
1158.3470594339,-0.00262681559078,100.80001229997,1.2566370614359,1008003.9458957,1007978.6804162,-1.6767889025026e-07,1008000.1229997
1168.3470594339,-0.0025204471683368,100.79980325846,1.2566370614359,1008001.7766166,1007977.4692293,-1.6911256097168e-07,1007998.0325846
1178.3470594339,-0.0024172867356473,100.79960268173,1.2566370614359,1007999.6943682,1007976.3176035,-1.7054587395266e-07,1007996.0268173
1188.3470594339,-0.0023172323144476,100.79941031449,1.2566370614359,1007997.6965216,1007975.2237228,-1.7197882616117e-07,1007994.1031449
1198.3470594339,-0.002220185708995,100.79922590957,1.2566370614359,1007995.780532,1007974.1858309,-1.7341141456596e-07,1007992.2590957
1208.3470594339,-0.0021260512327436,100.79904922759,1.2566370614359,1007993.943935,1007973.2022301,-1.7484363613652e-07,1007990.4922759
1218.3470594339,-0.0020347359330491,100.79888003682,1.2566370614359,1007992.1843443,1007972.2712789,-1.7627548784313e-07,1007988.8003682
1228.3470594339,-0.0019461504150839,100.7987181129,1.2566370614359,1007990.4994496,1007971.3913904,-1.7770696665687e-07,1007987.181129
1238.3470594339,-0.0018602074187103,100.79856323861,1.2566370614359,1007988.8870143,1007970.5610301,-1.7913806954958e-07,1007985.6323861
1248.3470594339,-0.0017768242153257,100.79841520364,1.2566370614359,1007987.3448727,1007969.7787146,-1.805687934939e-07,1007984.1520364
1258.3470594339,-0.0016959178516235,100.79827380429,1.2566370614359,1007985.8709282,1007969.0430096,-1.819991354633e-07,1007982.7380429
1268.3470594339,-0.0016174099432826,100.79813884345,1.2566370614359,1007984.4631501,1007968.3525285,-1.8342909243202e-07,1007981.3884345
1278.3470594339,-0.0015412239036156,100.79801013026,1.2566370614359,1007983.1195734,1007967.7059307,-1.8485866137513e-07,1007980.1013026
1288.3470594339,-0.0014672861794424,100.79788747995,1.2566370614359,1007981.8382952,1007967.1019198,-1.8628783926853e-07,1007978.8747995
1298.3470594339,-0.0013955244160049,100.79777071358,1.2566370614359,1007980.6174734,1007966.5392427,-1.8771662308894e-07,1007977.7071358
1308.3470594339,-0.0013258698163621,100.797659658,1.2566370614359,1007979.4553245,1007966.0166877,-1.8914500981391e-07,1007976.59658
1318.3470594339,-0.0012582543700376,100.79755414552,1.2566370614359,1007978.3501219,1007965.5330836,-1.9057299642183e-07,1007975.5414552
