time,flux,h,injection_area,pp_0,pp_inf,tidal_head,wellPP
0,0,101.05102220199,1.2566370614359,0,0,0,0
1,0,101.05102220199,1.2566370614359,1010503.8839321,1010478.7289426,-1.4544410382007e-10,1010510.2220199
2.1,-0.0073932556350793,101.05102220199,1.2566370614359,1010511.5041658,1010457.0725506,-3.0543261435009e-10,1010510.2220199
3.31,-0.012250349150253,101.05095101116,1.2566370614359,1010511.1233151,1010437.1103745,-4.814199667457e-10,1010509.5101116
4.641,-0.016391142958734,101.05082125456,1.2566370614359,1010510.0864376,1010417.6512391,-6.7500603694961e-10,1010508.2125456
6.1051,-0.020006478913762,101.05063027674,1.2566370614359,1010508.5050755,1010398.1935585,-8.8795068467744e-10,1010506.3027674
7.71561,-0.02328617504126,101.05037386552,1.2566370614359,1010506.33788,1010378.4563279,-1.1221897503008e-09,1010503.7386552
9.487171,-0.026352684540931,101.05004557585,1.2566370614359,1010503.5331245,1010358.2527308,-1.3798526508756e-09,1010500.4557585
11.4358881,-0.029276251786085,101.04963690223,1.2566370614359,1010500.0208316,1010337.4431706,-1.6632817350412e-09,1010496.3690223
13.57947691,-0.032095447180665,101.04913748917,1.2566370614359,1010495.7129057,1010315.914289,-1.9750535724212e-09,1010491.3748917
15.937424601,-0.034829822725449,101.04853523399,1.2566370614359,1010490.5042479,1010293.5685783,-2.3180023706367e-09,1010485.3523399
18.5311670611,-0.037486754261459,101.04781631317,1.2566370614359,1010484.2732464,1010270.3192188,-2.6952457322324e-09,1010478.1631317
21.38428376721,-0.040064976666501,101.04696517451,1.2566370614359,1010476.8817609,1010246.0880726,-3.1102129848979e-09,1010469.6517451
24.522712143931,-0.042556298910107,101.04596452944,1.2566370614359,1010468.1749087,1010220.8059937,-3.566676341488e-09,1010459.6452944
27.974983358324,-0.044946284794955,101.04479537548,1.2566370614359,1010457.9809346,1010194.4150356,-4.0687851717294e-09,1010447.9537548
31.772481694157,-0.047214354111221,101.04343707975,1.2566370614359,1010446.1114258,1010166.8722137,-4.6211036953111e-09,1010434.3707975
35.949729863572,-0.049333615531542,101.04186755823,1.2566370614359,1010432.362161,1010138.1544062,-5.2286524365364e-09,1010418.6755823
40.544702849929,-0.051270660894303,101.04006359014,1.2566370614359,1010416.5149185,1010108.2638677,-5.8969538140733e-09,1010400.6359014
45.599173134922,-0.052985549624149,101.03800131071,1.2566370614359,1010398.3406214,1010077.2337685,-6.6320822758114e-09,1010380.0131071
51.159090448415,-0.054432151181207,101.03565692686,1.2566370614359,1010377.6042385,1010045.1331684,-7.4407194286655e-09,1010356.5692686
57.274999493256,-0.055559016351692,101.03300769811,1.2566370614359,1010354.0718727,1010012.070903,-8.3302146565827e-09,1010330.0769811
64.002499442582,-0.056310881417931,101.03003321713,1.2566370614359,1010327.5204523,1009978.1979704,-9.3086517672546e-09,1010300.3321713
71.40274938684,-0.056630883816847,101.02671700993,1.2566370614359,1010297.7503631,1009943.7081298,-1.0384922259302e-08,1010267.1700993
79.543024325524,-0.0564635164761,101.0230484522,1.2566370614359,1010264.6012184,1009908.8365339,-1.1568805857179e-08,1010230.484522
88.497326758076,-0.055758286223447,101.01902496498,1.2566370614359,1010227.9707357,1009873.8563013,-1.2871059020821e-08,1010190.2496498
98.347059433884,-0.054473992904042,101.01465440782,1.2566370614359,1010187.836358,1009839.0729924,-1.4303512201197e-08,1010146.5440782
108.34705943388,-0.052163669869759,101.01031937735,1.2566370614359,1010144.3116811,1009807.197838,-1.5757788812985e-08,1010103.1937735
118.34705943388,-0.049506750467778,101.00616820196,1.2566370614359,1010101.1694977,1009778.4296211,-1.7212032090772e-08,1010061.6820196
128.34705943388,-0.046788960528502,101.00222846374,1.2566370614359,1010059.8706803,1009752.468378,-1.8666238958255e-08,1010022.2846374
138.34705943388,-0.04407587009067,100.99850500675,1.2566370614359,1010020.6858907,1009729.0425217,-2.0120406339206e-08,1009985.0500675
148.34705943388,-0.041399460631373,100.99499745701,1.2566370614359,1009983.6610554,1009707.9062757,-2.1574531157482e-08,1009949.9745701
158.34705943388,-0.03878423876702,100.99170289544,1.2566370614359,1009948.7905095,1009688.8373395,-2.302861033703e-08,1009917.0289544
168.34705943388,-0.036249625645634,100.98861645276,1.2566370614359,1009916.0435377,1009671.6347387,-2.4482640801893e-08,1009886.1645276
178.34705943388,-0.033810243257472,100.98573171413,1.2566370614359,1009885.3702989,1009656.1168493,-2.5936619476217e-08,1009857.3171413
188.34705943388,-0.031476427210051,100.9830411011,1.2566370614359,1009856.705833,1009642.119589,-2.7390543284259e-08,1009830.411011
198.34705943388,-0.029254902376275,100.98053621274,1.2566370614359,1009829.9738272,1009629.494762,-2.884440915039e-08,1009805.3621274
208.34705943388,-0.027149440266623,100.97820811291,1.2566370614359,1009805.0899752,1009618.1085503,-3.0298213999105e-08,1009782.0811291
218.34705943388,-0.025161451536718,100.97604756538,1.2566370614359,1009781.9648043,1009607.8401387,-3.1751954755027e-08,1009760.4756538
228.34705943388,-0.023290490148691,100.97404522164,1.2566370614359,1009760.5059863,1009598.5804668,-3.3205628342915e-08,1009740.4522164
238.34705943388,-0.021534674129821,100.97219176866,1.2566370614359,1009740.6201829,1009590.2310956,-3.4659231687671e-08,1009721.9176866
248.34705943388,-0.019891038283263,100.9704780432,1.2566370614359,1009722.2144958,1009582.7031811,-3.6112761714345e-08,1009704.780432
258.34705943388,-0.018355811360691,100.96889511798,1.2566370614359,1009705.1975877,1009575.9165438,-3.7566215348142e-08,1009688.9511798
268.34705943388,-0.016924655709353,100.96743436584,1.2566370614359,1009689.4805255,1009569.7988284,-3.9019589514427e-08,1009674.3436584
278.34705943388,-0.015592847035438,100.96608750481,1.2566370614359,1009674.9774076,1009564.284743,-4.0472881138736e-08,1009660.8750481
288.34705943388,-0.014355426453933,100.96484662887,1.2566370614359,1009661.6058026,1009559.3153719,-4.1926087146778e-08,1009648.4662887
298.34705943388,-0.013207319132451,100.96370422664,1.2566370614359,1009649.287048,1009554.8375545,-4.3379204464444e-08,1009637.0422664
308.34705943388,-0.012143425783295,100.96265319058,1.2566370614359,1009637.9464295,1009550.8033249,-4.4832230017811e-08,1009626.5319058
318.34705943388,-0.011158694943314,100.96168681896,1.2566370614359,1009627.5132675,1009547.1694048,-4.6285160733151e-08,1009616.8681896
328.34705943388,-0.010248180910144,100.96079881204,1.2566370614359,1009617.9209323,1009543.8967467,-4.7737993536937e-08,1009607.9881204
338.34705943388,-0.0094070792454714,100.95998326366,1.2566370614359,1009609.1068031,1009540.9501212,-4.919072535585e-08,1009599.8326366
348.34705943388,-0.0086307629898622,100.95923465,1.2566370614359,1009601.0121808,1009538.2977439,-5.0643353116782e-08,1009592.3465
358.34705943388,-0.0079147989163693,100.95854781545,1.2566370614359,1009593.5821746,1009535.9109394,-5.2095873746847e-08,1009585.4781545
368.34705943388,-0.0072549645331501,100.95791795719,1.2566370614359,1009586.7655594,1009533.7638375,-5.3548284173385e-08,1009579.1795719
378.34705943388,-0.0066472533265654,100.95734060843,1.2566370614359,1009580.5146211,1009531.8330995,-5.500058132397e-08,1009573.4060843
388.34705943388,-0.0060878800417279,100.95681162121,1.2566370614359,1009574.7849884,1009530.0976705,-5.6452762126415e-08,1009568.1162121
398.34705943388,-0.0055732791470242,100.95632714882,1.2566370614359,1009569.5354613,1009528.5385566,-5.7904823508778e-08,1009563.2714882
408.34705943388,-0.0051001015384524,100.95588362828,1.2566370614359,1009564.7278351,1009527.1386232,-5.9356762399372e-08,1009558.8362828
418.34705943388,-0.0046652107196505,100.95547776313,1.2566370614359,1009560.3267258,1009525.8824137,-6.0808575726767e-08,1009554.7776313
428.34705943388,-0.0042656738137278,100.9551065065,1.2566370614359,1009556.2993988,1009524.7559848,-6.22602604198e-08,1009551.065065
438.34705943388,-0.0038987568819271,100.95476704496,1.2566370614359,1009552.6155998,1009523.7467592,-6.3711813407578e-08,1009547.6704496
448.34705943388,-0.0035619121154842,100.95445678259,1.2566370614359,1009549.247394,1009522.8433915,-6.5163231619491e-08,1009544.5678259
458.34705943388,-0.0032527721056705,100.95417332627,1.2566370614359,1009546.169008,1009522.035648,-6.6614511985209e-08,1009541.7332627
468.34705943388,-0.0029691391328919,100.95391447126,1.2566370614359,1009543.3566827,1009521.3142981,-6.8065651434696e-08,1009539.1447126
478.34705943388,-0.002708975804013,100.9536781877,1.2566370614359,1009540.7885305,1009520.6710155,-6.9516646898215e-08,1009536.781877
488.34705943388,-0.0024703946036112,100.9534626079,1.2566370614359,1009538.4444008,1009520.0982906,-7.0967495306332e-08,1009534.626079
498.34705943388,-0.0022516505910896,100.95326601435,1.2566370614359,1009536.3057534,1009519.5893497,-7.2418193589925e-08,1009532.6601435
508.34705943388,-0.002051131064283,100.9530868284,1.2566370614359,1009534.3555397,1009519.1380836,-7.3868738680189e-08,1009530.868284
518.34705943388,-0.001867346346585,100.95292359976,1.2566370614359,1009532.5780901,1009518.7389823,-7.5319127508643e-08,1009529.2359976
528.34705943388,-0.0016989229709199,100.95277499668,1.2566370614359,1009530.9590092,1009518.3870762,-7.6769357007137e-08,1009527.7499668
538.34705943388,-0.0015445949911801,100.9526397967,1.2566370614359,1009529.4850787,1009518.0778833,-7.8219424107858e-08,1009526.397967
548.34705943388,-0.0014031955932682,100.95251687811,1.2566370614359,1009528.1441656,1009517.8073615,-7.9669325743336e-08,1009525.1687811
558.34705943388,-0.0012736502416186,100.95240521206,1.2566370614359,1009526.925137,1009517.5718654,-8.1119058846452e-08,1009524.0521206
568.34705943388,-0.0011549721102118,100.9523038552,1.2566370614359,1009525.8177818,1009517.3681074,-8.2568620350442e-08,1009523.038552
578.34705943388,-0.0010462523079408,100.95221194273,1.2566370614359,1009524.8127378,1009517.1931227,-8.4018007188907e-08,1009522.1194273
588.34705943388,-0.00094665515982262,100.95212868216,1.2566370614359,1009523.9014224,1009517.0442377,-8.5467216295817e-08,1009521.2868216
598.34705943388,-0.00085541521094223,100.95205334752,1.2566370614359,1009523.0759708,1009516.9190412,-8.6916244605515e-08,1009520.5334752
608.34705943388,-0.00077182647810057,100.95198527373,1.2566370614359,1009522.3291785,1009516.8153589,-8.8365089052731e-08,1009519.8527373
618.34705943388,-0.00069524327373013,100.95192385192,1.2566370614359,1009521.6544455,1009516.7312302,-8.9813746572582e-08,1009519.2385192
628.34705943388,-0.00062507267830375,100.95186852458,1.2566370614359,1009521.0457295,1009516.664887,-9.1262214100578e-08,1009518.6852458
638.34705943388,-0.00056077027095438,100.95181878141,1.2566370614359,1009520.4974982,1009516.614735,-9.2710488572635e-08,1009518.1878141
648.34705943388,-0.00050183743302456,100.95177415542,1.2566370614359,1009520.0046875,1009516.5793365,-9.4158566925076e-08,1009517.7415542
658.34705943388,-0.00044781659182712,100.95173421929,1.2566370614359,1009519.5626634,1009516.5573953,-9.5606446094636e-08,1009517.3421929
668.34705943388,-0.00039828923575794,100.95169858212,1.2566370614359,1009519.1671857,1009516.5477424,-9.7054123018476e-08,1009516.9858212
678.34705943388,-0.00035287157001443,100.95166688634,1.2566370614359,1009518.8143754,1009516.5493239,-9.8501594634182e-08,1009516.6688634
688.34705943388,-0.00031121107113086,100.95163880488,1.2566370614359,1009518.5006843,1009516.5611893,-9.9948857879775e-08,1009516.3880488
698.34705943388,-0.00027298686148538,100.95161403876,1.2566370614359,1009518.2228671,1009516.5824817,-1.0139590969372e-07,1009516.1403876
708.34705943388,-0.00023790360483549,100.95159231452,1.2566370614359,1009517.977957,1009516.6124285,-1.0284274701491e-07,1009515.9231452
718.34705943388,-0.00020569206807855,100.95157338219,1.2566370614359,1009517.7632404,1009516.650333,-1.0428936678273e-07,1009515.7338219
728.34705943388,-0.00017610485187166,100.95155701325,1.2566370614359,1009517.5762373,1009516.695567,-1.0573576593699e-07,1009515.5701325
738.34705943388,-0.00014891579142045,100.95154299886,1.2566370614359,1009517.41468,1009516.7475642,-1.0718194141799e-07,1009515.4299886
748.34705943388,-0.00012391954452129,100.95153114817,1.2566370614359,1009517.2764963,1009516.8058137,-1.0862789016648e-07,1009515.3114817
758.34705943388,-0.00010092578670241,100.95152128667,1.2566370614359,1009517.1597925,1009516.8698552,-1.100736091237e-07,1009515.2128667
768.34705943388,-7.9762431984308e-05,100.95151325502,1.2566370614359,1009517.0628372,1009516.9392735,-1.1151909523139e-07,1009515.1325502
778.34705943388,-6.0270614485585e-05,100.95150690754,1.2566370614359,1009516.9840492,1009517.0136942,-1.1296434543177e-07,1009515.0690754
788.34705943388,-4.2306560958078e-05,100.95150211121,1.2566370614359,1009516.9219832,1009517.0927797,-1.1440935666756e-07,1009515.0211121
798.34705943388,-2.5737695913772e-05,100.95149874447,1.2566370614359,1009516.8753194,1009517.1762257,-1.1585412588198e-07,1009514.9874447
808.34705943388,-1.044387749799e-05,100.95149669626,1.2566370614359,1009516.8428513,1009517.2637578,-1.1729865001877e-07,1009514.9669626
818.34705943388,3.6860105245631e-06,100.95149586514,1.2566370614359,1009516.8234774,1009517.3551284,-1.1874292602219e-07,1009514.9586514
828.34705943388,1.6753085051524e-05,100.95149615847,1.2566370614359,1009516.8161911,1009517.4501145,-1.2018695083701e-07,1009514.9615847
838.34705943388,2.8848276389362e-05,100.95149749168,1.2566370614359,1009516.820073,1009517.5485148,-1.2163072140855e-07,1009514.9749168
848.34705943388,4.0057346647561e-05,100.95149978742,1.2566370614359,1009516.8342842,1009517.6501478,-1.2307423468267e-07,1009514.9978742
858.34705943388,5.0456433104966e-05,100.95150297518,1.2566370614359,1009516.8580573,1009517.75485,-1.2451748760574e-07,1009515.0297518
868.34705943388,6.0116130336415e-05,100.95150699049,1.2566370614359,1009516.8906925,1009517.8624736,-1.2596047712473e-07,1009515.0699049
878.34705943388,6.9100366691636e-05,100.95151177452,1.2566370614359,1009516.9315503,1009517.9728857,-1.2740320018712e-07,1009515.1177452
888.34705943388,7.7468276830394e-05,100.95151727352,1.2566370614359,1009516.980047,1009518.0859662,-1.28845653741e-07,1009515.1727352
898.34705943388,8.5272965849306e-05,100.95152343843,1.2566370614359,1009517.0356492,1009518.2016068,-1.3028783473498e-07,1009515.2343843
908.34705943388,9.2564130831022e-05,100.95153022444,1.2566370614359,1009517.0978702,1009518.3197098,-1.317297401183e-07,1009515.3022444
918.34705943388,9.9385926154179e-05,100.95153759067,1.2566370614359,1009517.1662655,1009518.4401871,-1.3317136684073e-07,1009515.3759067
928.34705943388,0.00010577951014119,100.95154549979,1.2566370614359,1009517.2404294,1009518.5629593,-1.3461271185267e-07,1009515.4549979
938.34705943388,0.00011178210879066,100.9515539177,1.2566370614359,1009517.3199915,1009518.6879546,-1.360537721051e-07,1009515.539177
948.34705943388,0.00011742754008724,100.9515628133,1.2566370614359,1009517.4046135,1009518.8151083,-1.374945445496e-07,1009515.628133
958.34705943388,0.00012274707536781,100.95157215816,1.2566370614359,1009517.4939869,1009518.9443621,-1.3893502613837e-07,1009515.7215816
968.34705943388,0.00012776962657495,100.95158192635,1.2566370614359,1009517.5878296,1009519.0756631,-1.4037521382421e-07,1009515.8192635
978.34705943388,0.00013252043548235,100.95159209424,1.2566370614359,1009517.6858843,1009519.2089638,-1.4181510456054e-07,1009515.9209424
988.34705943388,0.0001370230585821,100.95160264019,1.2566370614359,1009517.7879164,1009519.3442214,-1.4325469530144e-07,1009516.0264019
998.34705943388,0.00014130034080293,100.95161354446,1.2566370614359,1009517.8937116,1009519.4813969,-1.4469398300158e-07,1009516.1354446
1008.3470594339,0.00014537085769344,100.95162478912,1.2566370614359,1009518.0030738,1009519.6204554,-1.4613296461631e-07,1009516.2478912
1018.3470594339,0.00014925322225294,100.9516363577,1.2566370614359,1009518.115825,1009519.7613653,-1.4757163710161e-07,1009516.363577
1028.3470594339,0.0001529630888752,100.95164823525,1.2566370614359,1009518.2318021,1009519.9040979,-1.490099974141e-07,1009516.4823525
1038.3470594339,0.00015651663626386,100.95166040802,1.2566370614359,1009518.3508564,1009520.0486274,-1.5044804251108e-07,1009516.6040802
1048.3470594339,0.00015992678491138,100.95167286359,1.2566370614359,1009518.4728518,1009520.1949305,-1.5188576935052e-07,1009516.7286359
1058.3470594339,0.00016320675491587,100.95168559053,1.2566370614359,1009518.5976649,1009520.3429861,-1.5332317489105e-07,1009516.8559053
1068.3470594339,0.00016636740698114,100.9516985785,1.2566370614359,1009518.7251825,1009520.4927751,-1.5476025609199e-07,1009516.985785
1078.3470594339,0.00016941952690962,100.95171181798,1.2566370614359,1009518.8553017,1009520.6442802,-1.5619700991333e-07,1009517.1181798
1088.3470594339,0.000172372477377,100.95172530036,1.2566370614359,1009518.9879284,1009520.7974858,-1.5763343331577e-07,1009517.2530036
1098.3470594339,0.00017523464734072,100.95173901773,1.2566370614359,1009519.1229769,1009520.9523777,-1.590695232607e-07,1009517.3901773
1108.3470594339,0.00017801450065963,100.95175296287,1.2566370614359,1009519.2603689,1009521.1089431,-1.6050527671022e-07,1009517.5296287
1118.3470594339,0.00018071859120671,100.95176712923,1.2566370614359,1009519.4000326,1009521.2671705,-1.6194069062714e-07,1009517.6712923
1128.3470594339,0.00018335384736199,100.95178151079,1.2566370614359,1009519.5419032,1009521.4270491,-1.6337576197499e-07,1009517.8151079
1138.3470594339,0.00018592712260409,100.95179610205,1.2566370614359,1009519.6859208,1009521.5885697,-1.6481048771801e-07,1009517.9610205
1148.3470594339,0.00018844253651032,100.9518108981,1.2566370614359,1009519.832031,1009521.7517233,-1.6624486482119e-07,1009518.108981
1158.3470594339,0.00019090596884102,100.95182589432,1.2566370614359,1009519.9801849,1009521.9165022,-1.6767889025026e-07,1009518.2589432
1168.3470594339,0.00019332236308897,100.95184108658,1.2566370614359,1009520.1303369,1009522.0828992,-1.6911256097168e-07,1009518.4108658
1178.3470594339,0.00019569520216953,100.95185647114,1.2566370614359,1009520.2824459,1009522.2509078,-1.7054587395266e-07,1009518.5647114
1188.3470594339,0.00019802804389947,100.95187204453,1.2566370614359,1009520.4364748,1009522.420522,-1.7197882616117e-07,1009518.7204453
1198.3470594339,0.00020032549471523,100.95188780357,1.2566370614359,1009520.5923891,1009522.5917365,-1.7341141456596e-07,1009518.8780357
1208.3470594339,0.00020258946460266,100.95190374543,1.2566370614359,1009520.7501573,1009522.7645463,-1.7484363613652e-07,1009519.0374543
1218.3470594339,0.00020482418549118,100.95191986747,1.2566370614359,1009520.9097515,1009522.9389469,-1.7627548784313e-07,1009519.1986747
1228.3470594339,0.00020703081835259,100.95193616734,1.2566370614359,1009521.0711452,1009523.1149343,-1.7770696665687e-07,1009519.3616734
1238.3470594339,0.00020921232179239,100.95195264281,1.2566370614359,1009521.2343153,1009523.2925045,-1.7913806954958e-07,1009519.5264281
1248.3470594339,0.00021137176676823,100.95196929189,1.2566370614359,1009521.3992397,1009523.4716542,-1.805687934939e-07,1009519.6929189
1258.3470594339,0.00021351012699837,100.95198611282,1.2566370614359,1009521.5658985,1009523.6523803,-1.819991354633e-07,1009519.8611282
1268.3470594339,0.00021563013638413,100.95200310391,1.2566370614359,1009521.7342743,1009523.8346797,-1.8342909243202e-07,1009520.0310391
1278.3470594339,0.00021773258139026,100.95202026372,1.2566370614359,1009521.9043505,1009524.0185499,-1.8485866137513e-07,1009520.2026372
1288.3470594339,0.0002198192971012,100.95203759084,1.2566370614359,1009522.0761125,1009524.2039883,-1.8628783926853e-07,1009520.3759084
1298.3470594339,0.00022189166919296,100.95205508402,1.2566370614359,1009522.2495465,1009524.3909927,-1.8771662308894e-07,1009520.5508402
1308.3470594339,0.00022395085863732,100.95207274212,1.2566370614359,1009522.4246402,1009524.5795609,-1.8914500981391e-07,1009520.7274212
