time,flux,h,injection_area,pp_0,pp_inf,tidal_head,wellPP
0,0,101.05102220186,1.2566370614359,0,0,0,0
1,0,101.05102220186,1.2566370614359,1010509.4981793,1010501.0168313,-1.4544410382007e-10,1010510.2220186
2.1,-0.00010121846394502,101.05102220186,1.2566370614359,1010510.4267613,1010495.8733861,-3.0543261435009e-10,1010510.2220186
3.31,-9.4190764657705e-05,101.05102122721,1.2566370614359,1010510.4262175,1010491.2578402,-4.814199667457e-10,1010510.2122721
4.641,-0.00011904953002678,101.05102022954,1.2566370614359,1010510.4154908,1010486.7754115,-6.7500603694961e-10,1010510.2022954
6.1051,-0.00014967645264561,101.05101884246,1.2566370614359,1010510.4043134,1010482.2727707,-8.8795068467744e-10,1010510.1884246
7.71561,-0.00018326943347781,101.05101692414,1.2566370614359,1010510.3890737,1010477.6620802,-1.1221897503008e-09,1010510.1692414
9.487171,-0.0002184003274217,101.0510143404,1.2566370614359,1010510.3684085,1010472.8818564,-1.3798526508756e-09,1010510.143404
11.4358881,-0.00025434614865915,101.05101095348,1.2566370614359,1010510.3410184,1010467.882874,-1.6632817350412e-09,1010510.1095348
13.57947691,-0.00029084642755199,101.05100661468,1.2566370614359,1010510.3055514,1010462.6218277,-1.9750535724212e-09,1010510.0661468
15.937424601,-0.00032792041376147,101.05100115709,1.2566370614359,1010510.2605313,1010457.0580374,-2.3180023706367e-09,1010510.0115709
18.5311670611,-0.0003657443502951,101.0509943885,1.2566370614359,1010510.204289,1010451.1515255,-2.6952457322324e-09,1010509.943885
21.38428376721,-0.00040457477446728,101.05098608426,1.2566370614359,1010510.1348959,1010444.8617787,-3.1102129848979e-09,1010509.8608426
24.522712143931,-0.00044470627350644,101.05097597978,1.2566370614359,1010510.0500947,1010438.1468719,-3.566676341488e-09,1010509.7597978
27.974983358324,-0.00048644777826023,101.05096376231,1.2566370614359,1010509.9472274,1010430.9627922,-4.0687851717294e-09,1010509.6376231
31.772481694157,-0.00053011496070279,101.05094906165,1.2566370614359,1010509.823153,1010423.2628762,-4.6211036953111e-09,1010509.4906165
35.949729863572,-0.00057602720042786,101.05093143932,1.2566370614359,1010509.6741551,1010414.9973075,-5.2286524365364e-09,1010509.3143932
40.544702849929,-0.00062450747229664,101.0509103759,1.2566370614359,1010509.4958349,1010406.1126459,-5.8969538140733e-09,1010509.103759
45.599173134922,-0.00067588444367715,101.0508852561,1.2566370614359,1010509.2829834,1010396.5513663,-6.6320822758114e-09,1010508.852561
51.159090448415,-0.0007304958075568,101.05085535111,1.2566370614359,1010509.0294327,1010386.2513942,-7.4407194286655e-09,1010508.5535111
57.274999493256,-0.0007886924395704,101.05081979766,1.2566370614359,1010508.7278794,1010375.1456291,-8.3302146565827e-09,1010508.1979766
64.002499442582,-0.00085083412862004,101.05077757318,1.2566370614359,1010508.369675,1010363.1614472,-9.3086517672546e-09,1010507.7757318
71.40274938684,-0.00091729946386061,101.05072746666,1.2566370614359,1010507.9445772,1010350.2201782,-1.0384922259302e-08,1010507.2746666
79.543024325524,-0.00098848193982674,101.05066804385,1.2566370614359,1010507.4404591,1010336.2365527,-1.1568805857179e-08,1010506.6804385
88.497326758076,-0.0010647928401369,101.05059760643,1.2566370614359,1010506.8429601,1010321.1181167,-1.2871059020821e-08,1010505.9760643
98.347059433884,-0.0011466649825637,101.05051414372,1.2566370614359,1010506.1350785,1010304.764617,-1.4303512201197e-08,1010505.1414372
109.18176537727,-0.0012345495357241,101.05041527552,1.2566370614359,1010505.296688,1010287.0673655,-1.5879176681274e-08,1010504.1527552
121.099941915,-0.0013289211872765,101.05029818512,1.2566370614359,1010504.3039664,1010267.9086043,-1.7612361914172e-08,1010502.9818512
134.2099361065,-0.0014302735749348,101.05015953998,1.2566370614359,1010503.1287252,1010247.1609114,-1.9518804345923e-08,1010501.5953998
148.63092971715,-0.0015391224697784,101.04999539891,1.2566370614359,1010501.7376168,1010224.6867105,-2.1615808788268e-08,1010499.9539891
164.49402268886,-0.0016559995219848,101.04980110285,1.2566370614359,1010500.0912068,1010200.3379746,-2.3922403485905e-08,1010498.0110285
181.94342495775,-0.0017814482161533,101.0495711474,1.2566370614359,1010498.142881,1010173.9562415,-2.6459510100285e-08,1010495.711474
201.13776745353,-0.0019160134225594,101.04929903434,1.2566370614359,1010495.8375722,1010145.373079,-2.925012990538e-08,1010492.9903434
222.25154419888,-0.0020602283268593,101.04897709992,1.2566370614359,1010493.1102751,1010114.4111501,-3.2319547555297e-08,1010489.7709992
245.47669861877,-0.0022145976896258,101.04859631748,1.2566370614359,1010489.8843307,1010080.8860212,-3.5695553832918e-08,1010485.9631748
271.02436848064,-0.002379569496166,101.04814607229,1.2566370614359,1010486.0694529,1010044.6088391,-3.9408688814333e-08,1010481.4607229
299.12680532871,-0.0025555086286776,101.0476139085,1.2566370614359,1010481.5594788,1010005.3899605,-4.3492506873855e-08,1010476.139085
330.03948586158,-0.0027426596402502,101.04698524686,1.2566370614359,1010476.2298392,1009963.0435743,-4.7983864892624e-08,1010469.8524686
364.04343444774,-0.0029411028626412,101.04624307547,1.2566370614359,1010469.9347379,1009917.3933024,-5.2923234898487e-08,1010462.4307547
401.44777789251,-0.0031507065817289,101.04536761771,1.2566370614359,1010462.5040615,1009868.2787127,-5.8355042126302e-08,1010453.6761771
442.59255568176,-0.0033710779396405,101.04433598376,1.2566370614359,1010453.7400603,1009815.5626417,-6.4328029106316e-08,1010443.3598376
487.85181124994,-0.0036015034630364,101.04312181475,1.2566370614359,1010443.4138663,1009759.1391924,-7.0895645810472e-08,1010431.2181475
537.63699237493,-0.0038408927372531,101.04169493665,1.2566370614359,1010431.2619373,1009698.9422632,-7.8116465041028e-08,1010416.9493665
592.40069161242,-0.0040877182604743,101.04002104285,1.2566370614359,1010416.982598,1009634.9544615,-8.6054621037299e-08,1010400.2104285
652.64076077367,-0.0043399590429725,101.03806143414,1.2566370614359,1010400.2328687,1009567.2162608,-9.4780267577918e-08,1010380.6143414
718.90483685103,-0.0045950458541816,101.03577285085,1.2566370614359,1010380.6258667,1009495.835258,-1.0437004949901e-07,1010357.7285085
791.79532053614,-0.0048498075183886,101.03310744328,1.2566370614359,1010357.7291307,1009420.9953831,-1.1490757830958e-07,1010331.0744328
871.97485258975,-0.0051004352242145,101.03001293988,1.2566370614359,1010331.0643265,1009342.9658851,-1.2648389816859e-07,1010300.1293988
960.17233784872,-0.0053424500548545,101.02643307707,1.2566370614359,1010300.1089297,1009262.1098754,-1.3919792250444e-07,1010264.3307707
1057.1895716336,-0.0055706915656136,101.02230837768,1.2566370614359,1010264.3005251,1009178.8921518,-1.531568134937e-07,1010223.0837768
1157.1895716336,-0.0057533463581565,101.01787523144,1.2566370614359,1010223.0456989,1009098.8838209,-1.6751292165093e-07,1010178.7523144
1257.1895716336,-0.00589299647119,101.01329672885,1.2566370614359,1010178.7082418,1009024.335073,-1.8183359477034e-07,1010132.9672885
1357.1895716336,-0.0060001818432647,101.00860709295,1.2566370614359,1010132.9186095,1008954.9444486,-1.9611580351193e-07,1010086.0709295
1457.1895716336,-0.0060777987993853,101.00383215912,1.2566370614359,1010086.0189081,1008890.4237575,-2.1035652667233e-07,1010038.3215912
1557.1895716336,-0.0061285030812416,100.99899545787,1.2566370614359,1010038.2673778,1008830.4991147,-2.2455275182383e-07,1009989.9545787
1657.1895716336,-0.0061547987177261,100.99411840623,1.2566370614359,1009989.8992167,1008774.9113301,-2.3870147595168e-07,1009941.1840623
1757.1895716336,-0.0061590115472874,100.98922042858,1.2566370614359,1009941.1284959,1008723.4158642,-2.5279970608932e-07,1009892.2042858
1857.1895716336,-0.0061432891430284,100.98431909837,1.2566370614359,1009892.1493673,1008675.7825025,-2.6684445995148e-07,1009843.1909837
1957.1895716336,-0.0061096091267629,100.97943028001,1.2566370614359,1009843.1374809,1008631.7948542,-2.8083276656505e-07,1009794.3028001
2057.1895716336,-0.0060597917899017,100.97456826416,1.2566370614359,1009794.2514032,1008591.249747,-2.9476166689758e-07,1009745.6826416
2157.1895716336,-0.0059955073588897,100.96974589284,1.2566370614359,1009745.6339693,1008553.956568,-3.0862821448317e-07,1009697.4589284
2257.1895716336,-0.0059182923611625,100.96497467897,1.2566370614359,1009697.413534,1008519.736584,-3.2242947604578e-07,1009649.7467897
2357.1895716336,-0.0058295548307945,100.96026491264,1.2566370614359,1009649.705166,1008488.4222611,-3.3616253211974e-07,1009602.6491264
2457.1895716336,-0.0057305857309628,100.95562576349,1.2566370614359,1009602.6117113,1008459.8565992,-3.498244776673e-07,1009556.2576349
2557.1895716336,-0.0056225686536797,100.95106537376,1.2566370614359,1009556.2248155,1008433.8924891,-3.6341242269315e-07,1009510.6537376
2657.1895716336,-0.0055065872350315,100.94659094383,1.2566370614359,1009510.6258549,1008410.3920966,-3.7692349285578e-07,1009465.9094383
2757.1895716336,-0.0053836328325728,100.9422088117,1.2566370614359,1009465.8867909,1008389.2262781,-3.9035483007547e-07,1009422.088117
2857.1895716336,-0.0052546117158614,100.93792452646,1.2566370614359,1009422.0709647,1008370.2740265,-4.0370359313892e-07,1009379.2452646
2957.1895716336,-0.0051203525940495,100.93374291599,1.2566370614359,1009379.2338318,1008353.4219488,-4.1696695830024e-07,1009337.4291599
3057.1895716336,-0.00498161174663,100.92966814868,1.2566370614359,1009337.4236389,1008338.5637752,-4.3014211987828e-07,1009296.6814868
3157.1895716336,-0.0048390786410421,100.92570379109,1.2566370614359,1009296.6820401,1008325.5998964,-4.4322629085014e-07,1009257.0379109
3257.1895716336,-0.0046933819996847,100.92185286109,1.2566370614359,1009257.0446744,1008314.4369312,-4.5621670344072e-07,1009218.5286109
3357.1895716336,-0.0045450930581282,100.91811787621,1.2566370614359,1009218.5416958,1008304.9873198,-4.6911060970822e-07,1009181.1787621
3457.1895716336,-0.004394733130156,100.9145008994,1.2566370614359,1009181.1982575,1008297.1689432,-4.8190528212539e-07,1009145.008994
3557.1895716336,-0.004242772783849,100.91100357875,1.2566370614359,1009145.0349689,1008290.9047668,-4.9459801415654e-07,1009110.0357875
3657.1895716336,-0.0040896417660224,100.90762718787,1.2566370614359,1009110.0682924,1008286.1225071,-5.0718612083007e-07,1009076.2718787
3757.1895716336,-0.0039357255193095,100.90437265837,1.2566370614359,1009076.3109478,1008282.7543187,-5.196669393064e-07,1009043.7265837
3857.1895716336,-0.0037813759305141,100.90124061514,1.2566370614359,1009043.7722361,1008280.7365029,-5.320378294413e-07,1009012.4061514
3957.1895716336,-0.003626909233371,100.89823140304,1.2566370614359,1009012.4583926,1008280.0092338,-5.4429617434435e-07,1008982.3140304
4057.1895716336,-0.0034726086675457,100.89534511525,1.2566370614359,1008982.3728537,1008280.5163028,-5.5643938093251e-07,1008953.4511525
4157.1895716336,-0.0033187312946623,100.89258161958,1.2566370614359,1008953.5165406,1008282.2048793,-5.6846488047867e-07,1008925.8161958
4257.1895716336,-0.0031655056389096,100.88994057923,1.2566370614359,1008925.8881211,1008285.0252869,-5.8037012915499e-07,1008899.4057923
4357.1895716336,-0.0030131361436742,100.88742147559,1.2566370614359,1008899.484219,1008288.9307944,-5.9215260857107e-07,1008874.2147559
4457.1895716336,-0.0028618063548508,100.88502362731,1.2566370614359,1008874.2996399,1008293.8774198,-6.0380982630661e-07,1008850.2362731
4557.1895716336,-0.0027116785463347,100.88274620701,1.2566370614359,1008850.3275635,1008299.8237473,-6.1533931643871e-07,1008827.4620701
4657.1895716336,-0.0025628950682473,100.88058825814,1.2566370614359,1008827.5597099,1008306.7307565,-6.2673864006346e-07,1008805.8825814
4757.1895716336,-0.0024155837772882,100.8785487109,1.2566370614359,1008805.9865083,1008314.5616619,-6.3800538581187e-07,1008785.487109
4857.1895716336,-0.0022698545912701,100.87662639371,1.2566370614359,1008785.5972558,1008323.2817635,-6.4913717035998e-07,1008766.2639371
4957.1895716336,-0.0021258047322176,100.87482004754,1.2566370614359,1008766.3802325,1008332.8583067,-6.6013163893299e-07,1008748.2004754
5057.1895716336,-0.0019835176028458,100.87312833599,1.2566370614359,1008748.3228446,1008343.2603517,-6.7098646580338e-07,1008731.2833599
5157.1895716336,-0.0018430649212507,100.87154985629,1.2566370614359,1008731.4117248,1008354.4586512,-6.8169935478293e-07,1008715.4985629
5257.1895716336,-0.001704507469923,100.87008314857,1.2566370614359,1008715.6328429,1008366.4255354,-6.9226803970838e-07,1008700.8314857
5357.1895716336,-0.0015678971929875,100.86872670461,1.2566370614359,1008700.9715981,1008379.1348062,-7.0269028492086e-07,1008687.2670461
5457.1895716336,-0.0014332762973862,100.86747897487,1.2566370614359,1008687.4129064,1008392.561636,-7.1296388573879e-07,1008674.7897487
5557.1895716336,-0.0013006789381603,100.8663383762,1.2566370614359,1008674.9412707,1008406.6824755,-7.2308666892424e-07,1008663.383762
5657.1895716336,-0.0011701330909846,100.86530329826,1.2566370614359,1008663.5408585,1008421.4749653,-7.3305649314269e-07,1008653.0329826
5757.1895716336,-0.0010416581553233,100.86437210847,1.2566370614359,1008653.1955655,1008436.9178552,-7.4287124941593e-07,1008643.7210847
5857.1895716336,-0.00091526937361234,100.8635431588,1.2566370614359,1008643.8890652,1008452.9909271,-7.5252886156825e-07,1008635.431588
5957.1895716336,-0.00079097663283737,100.86281478909,1.2566370614359,1008635.6048769,1008469.6749244,-7.6202728666561e-07,1008628.1478909
6057.1895716336,-0.00066878453943478,100.86218533132,1.2566370614359,1008628.3263989,1008486.9514851,-7.7136451544776e-07,1008621.8533132
6157.1895716336,-0.00054869271889756,100.8616531138,1.2566370614359,1008622.0369507,1008504.8030795,-7.8053857275332e-07,1008616.531138
6257.1895716336,-0.00043069884928214,100.86121646513,1.2566370614359,1008616.7198158,1008523.2129523,-7.8954751793756e-07,1008612.1646513
6357.1895716336,-0.00031479532809583,100.86087371576,1.2566370614359,1008612.3582804,1008542.1650681,-7.9838944528295e-07,1008608.7371576
6457.1895716336,-0.00020097316716995,100.86062320221,1.2566370614359,1008608.9356495,1008561.6440607,-8.0706248440224e-07,1008606.2320221
6557.1895716336,-8.9220120124694e-05,100.86046326813,1.2566370614359,1008606.4352887,1008581.6351858,-8.1556480063417e-07,1008604.6326813
6657.1895716336,2.0478830771787e-05,100.86039226692,1.2566370614359,1008604.8406351,1008602.1242768,-8.2389459543155e-07,1008603.9226692
6757.1895716336,0.00012813993912452,100.86040856394,1.2566370614359,1008604.1352233,1008623.0977035,-8.3205010674167e-07,1008604.0856394
6857.1895716336,0.00023378133107367,100.86051053747,1.2566370614359,1008604.302708,1008644.5423333,-8.4002960937911e-07,1008605.1053747
6957.1895716336,0.00033742337980158,100.86069658023,1.2566370614359,1008605.3268726,1008666.4454957,-8.4783141539063e-07,1008606.9658023
7057.1895716336,0.00043908608398356,100.86096510114,1.2566370614359,1008607.1916451,1008688.794948,-8.5545387441227e-07,1008609.6510114
7157.1895716336,0.00053879225109763,100.86131452505,1.2566370614359,1008609.881116,1008711.578845,-8.6289537401842e-07,1008613.1452505
7257.1895716336,0.00063656438901619,100.86174329495,1.2566370614359,1008613.3795344,1008734.7857087,-8.7015434006294e-07,1008617.4329495
7357.1895716336,0.0007324257920764,100.86224987173,1.2566370614359,1008617.6713313,1008758.4044018,-8.7722923701212e-07,1008622.4987173
7457.1895716336,0.00082640106539003,100.86283273485,1.2566370614359,1008622.7411168,1008782.424102,-8.8411856826953e-07,1008628.3273485
7557.1895716336,0.00091851511367445,100.86349038332,1.2566370614359,1008628.5736863,1008806.8342784,-8.9082087649259e-07,1008634.9038332
7657.1895716336,0.0010087912312668,100.86422133598,1.2566370614359,1008635.1540311,1008831.6246693,-8.9733474390086e-07,1008642.2133598
7757.1895716336,0.0010972556711098,100.86502413021,1.2566370614359,1008642.4673406,1008856.7852619,-9.0365879257592e-07,1008650.2413021
7857.1895716336,0.0011839331506673,100.86589732428,1.2566370614359,1008650.4989898,1008882.3062729,-9.097916847529e-07,1008658.9732428
7957.1895716336,0.0012688480503469,100.86683949613,1.2566370614359,1008659.2345622,1008908.1781309,-9.1573212310341e-07,1008668.3949613
8057.1895716336,0.0013520259489785,100.86784924311,1.2566370614359,1008668.6598385,1008934.3914595,-9.2147885101003e-07,1008678.4924311
8157.1895716336,0.0014334911520684,100.86892518291,1.2566370614359,1008678.760793,1008960.9370626,-9.2703065283209e-07,1008689.2518291
8257.1895716336,0.0015132683021789,100.87006595257,1.2566370614359,1008689.5236039,1008987.805909,-9.3238635416283e-07,1008700.6595257
8357.1895716336,0.0015913815175627,100.87127020873,1.2566370614359,1008700.9346425,1009014.98912,-9.3754482207782e-07,1008712.7020873
8457.1895716336,0.001667854841571,100.87253662726,1.2566370614359,1008712.9804764,1009042.4779568,-9.4250496537464e-07,1008725.3662726
8557.1895716336,0.0017427117557945,100.87386390312,1.2566370614359,1008725.6478649,1009070.2638087,-9.4726573480371e-07,1008738.6390312
8657.1895716336,0.0018159750302606,100.87525074997,1.2566370614359,1008738.9237589,1009098.3381827,-9.5182612329021e-07,1008752.5074997
8757.1895716336,0.0018876667983345,100.8766958996,1.2566370614359,1008752.7952959,1009126.6926938,-9.5618516614713e-07,1008766.958996
8857.1895716336,0.0019578111033675,100.87819810142,1.2566370614359,1008767.2497948,1009155.3190557,-9.6034194127934e-07,1008781.9810142
8957.1895716336,0.0020264278316828,100.87975612394,1.2566370614359,1008782.2747504,1009184.2090722,-9.6429556937866e-07,1008797.5612394
9057.1895716336,0.002093538704688,100.88136875153,1.2566370614359,1008797.8578489,1009213.3546297,-9.6804521410984e-07,1008813.6875153
9157.1895716336,0.0021591642453683,100.88303478583,1.2566370614359,1008813.9869349,1009242.7476898,-9.7159008228747e-07,1008830.3478583
9257.1895716336,0.0022233247520047,100.88475304482,1.2566370614359,1008830.6500255,1009272.3802826,-9.7492942404382e-07,1008847.5304482
9357.1895716336,0.0022860398113146,100.88652236263,1.2566370614359,1008847.8353014,1009302.2445007,-9.7806253298739e-07,1008865.2236263
9457.1895716336,0.0023473291598186,100.88834158896,1.2566370614359,1008865.5311047,1009332.3324938,-9.809887463524e-07,1008883.4158896
9557.1895716336,0.0024072092383751,100.89020958925,1.2566370614359,1008883.7259333,1009362.6364628,-9.8370744513895e-07,1008902.0958925
9657.1895716336,0.0024656998958566,100.89212524199,1.2566370614359,1008902.4084422,1009393.148656,-9.8621805424397e-07,1008921.2524199
9757.1895716336,0.0025228176480231,100.89408744149,1.2566370614359,1008921.5674173,1009423.8613639,-9.8852004258289e-07,1008940.8744149
9857.1895716336,0.002578581220226,100.8960950952,1.2566370614359,1008941.191802,1009454.7669158,-9.9061292320198e-07,1008960.950952
9957.1895716336,0.0026330044317746,100.89814712546,1.2566370614359,1008961.2706718,1009485.857676,-9.9249625338132e-07,1008981.4712546
10057.189571634,0.0026861037984289,100.90024246561,1.2566370614359,1008981.7932507,1009517.1260406,-9.9416963472852e-07,1009002.4246561
10157.189571634,0.0027378958359489,100.90238006214,1.2566370614359,1009002.7488727,1009548.5644342,-9.9563271326293e-07,1009023.8006214
10257.189571634,0.0027883941763903,100.90455887467,1.2566370614359,1009024.1270035,1009580.1653078,-9.9688517949056e-07,1009045.5887467
10357.189571634,0.0028376132382738,100.9067778737,1.2566370614359,1009045.9172398,1009611.9211358,-9.9792676846953e-07,1009067.778737
10457.189571634,0.0028855671030636,100.90903604117,1.2566370614359,1009068.1092871,1009643.8244142,-9.9875725986613e-07,1009090.3604117
10557.189571634,0.0029322695900691,100.91133237023,1.2566370614359,1009090.6929654,1009675.8676588,-9.9937647800139e-07,1009113.3237023
10657.189571634,0.0029777326460644,100.91366586505,1.2566370614359,1009113.6582069,1009708.043403,-9.9978429188832e-07,1009136.6586505
10757.189571634,0.0030219688544858,100.91603553929,1.2566370614359,1009136.9950536,1009740.3441968,-9.9998061525952e-07,1009160.3553929
